1,681.348,411.750,48.105,0,0,0
2,681.530,411.970,47.877,0,0,0
3,681.674,412.251,47.674,0,0,0
4,681.993,412.503,47.268,0,0,0
5,682.259,412.814,46.928,0,0,0
6,682.472,413.113,46.721,0,0,0
7,682.689,413.342,46.430,0,0,0
8,682.890,413.602,46.268,0,0,0
9,683.159,413.883,46.008,0,0,0
10,683.466,414.117,45.702,0,0,0
11,683.742,414.338,45.502,0,0,0
12,683.976,414.571,45.310,0,0,0
13,684.128,414.843,45.212,0,0,0
14,684.438,415.017,44.997,0,0,0
15,684.728,415.157,44.817,0,0,0
16,685.070,415.258,44.722,0,0,0
17,685.356,415.269,44.730,0,0,0
18,685.623,415.252,44.774,0,0,0
19,685.864,415.174,44.894,0,0,0
20,686.084,415.055,45.072,0,0,0
21,686.278,415.063,45.146,0,0,0
22,686.399,415.098,45.155,0,0,0
23,686.495,415.210,45.085,0,0,0
24,686.601,415.405,44.940,0,0,0
25,686.714,415.583,44.686,0,0,0
26,686.896,415.801,44.384,0,0,0
27,687.178,415.890,44.072,0,0,0
28,687.437,416.029,43.833,0,0,0
29,687.570,416.092,43.717,0,0,0
30,687.797,416.190,43.524,0,0,0
31,688.084,416.301,43.240,0,0,0
32,688.358,416.423,42.975,0,0,0
33,688.562,416.561,42.781,0,0,0
34,688.768,416.708,42.660,0,0,0
35,689.088,416.886,42.362,0,0,0
36,689.374,417.068,42.109,0,0,0
37,689.744,417.291,41.698,0,0,0
38,689.997,417.569,41.477,0,0,0
39,690.259,417.844,41.198,0,0,0
40,690.590,418.184,40.861,0,0,0
41,690.845,418.486,40.627,0,0,0
42,691.171,418.836,40.397,0,0,0
43,691.407,419.134,40.234,0,0,0
44,691.600,419.420,40.190,0,0,0
45,691.891,419.806,39.924,0,0,0
46,692.032,420.126,39.816,0,0,0
47,692.007,420.504,39.674,0,0,0
48,692.039,420.858,39.475,0,0,0
49,692.050,421.208,39.300,0,0,0
50,692.096,421.509,39.109,0,0,0
51,692.158,421.743,38.988,0,0,0
52,692.324,421.869,38.886,0,0,0
53,692.449,421.954,38.912,0,0,0
54,692.596,421.936,38.985,0,0,0
55,692.789,421.903,39.021,0,0,0
56,692.792,421.721,39.205,0,0,0
57,692.900,421.636,39.251,0,0,0
58,692.876,421.545,39.362,0,0,0
59,692.808,421.529,39.366,0,0,0
60,692.675,421.469,39.458,0,0,0
61,692.573,421.603,39.497,0,0,0
62,692.474,421.543,39.473,0,0,0
63,692.297,421.513,39.512,0,0,0
64,692.123,421.401,39.655,0,0,0
65,692.053,421.304,39.748,0,0,0
66,692.127,421.220,39.766,0,0,0
67,691.996,421.241,39.963,0,0,0
68,691.899,421.258,40.116,0,0,0
69,691.824,421.312,40.138,0,0,0
70,691.768,421.400,40.224,0,0,0
71,691.695,421.444,40.237,0,0,0
72,691.526,421.421,40.365,0,0,0
73,691.446,421.437,40.374,0,0,0
74,691.407,421.490,40.252,0,0,0
75,691.368,421.534,40.152,0,0,0
76,691.271,421.644,40.152,0,0,0
77,691.189,421.756,40.111,0,0,0
78,691.184,421.944,40.102,0,0,0
79,691.148,422.093,40.141,0,0,0
80,691.206,422.319,40.143,0,0,0
81,691.282,422.481,40.120,0,0,0
82,691.388,422.633,40.104,0,0,0
83,691.453,422.765,40.104,0,0,0
84,691.597,422.957,39.983,0,0,0
85,691.638,423.139,39.915,0,0,0
86,691.835,423.432,39.604,0,0,0
87,691.838,423.729,39.438,0,0,0
88,691.899,424.170,39.192,0,0,0
89,692.006,424.678,38.893,0,0,0
90,692.043,425.218,38.697,0,0,0
91,692.219,425.865,38.469,0,0,0
92,692.519,426.482,38.194,0,0,0
93,692.769,427.051,37.960,0,0,0
94,693.384,427.754,37.354,0,0,0
95,693.748,428.434,36.906,0,0,0
96,694.019,429.186,36.529,0,0,0
97,694.322,429.875,36.014,0,0,0
98,694.766,430.663,35.390,0,0,0
99,695.246,431.481,34.684,0,0,0
100,695.726,432.374,34.082,0,0,0
101,696.545,433.414,33.146,0,0,0
102,697.387,434.566,32.179,0,0,0
103,698.119,435.749,31.290,0,0,0
104,699.100,437.155,30.211,0,0,0
105,699.845,438.405,29.335,0,0,0
106,700.759,439.743,28.212,0,0,0
107,701.511,441.103,27.371,0,0,0
108,702.265,442.347,26.430,0,0,0
109,702.839,443.593,25.688,0,0,0
110,703.339,444.730,24.991,0,0,0
111,703.723,445.730,24.405,0,0,0
112,704.165,446.626,23.798,0,0,0
113,704.585,447.353,23.341,0,0,0
114,704.981,448.069,23.007,0,0,0
115,705.419,448.562,22.648,0,0,0
116,705.946,449.070,22.256,0,0,0
117,706.424,449.592,21.957,0,0,0
118,706.922,450.027,21.619,0,0,0
119,707.246,450.361,21.431,0,0,0
120,707.566,450.690,21.124,0,0,0
121,707.868,451.026,20.791,0,0,0
122,707.971,451.233,20.603,0,0,0
123,708.114,451.391,20.344,0,0,0
124,708.171,451.454,20.152,0,0,0
125,708.242,451.680,19.964,0,0,0
126,708.184,451.743,19.916,0,0,0
127,708.228,451.935,19.748,0,0,0
128,707.941,451.971,20.000,0,0,0
129,707.954,452.059,19.925,0,0,0
130,707.831,452.131,20.012,0,0,0
131,707.691,452.179,20.012,0,0,0
132,707.581,452.238,20.004,0,0,0
133,707.395,452.285,20.060,0,0,0
134,707.311,452.355,19.901,0,0,0
135,707.048,452.333,19.927,0,0,0
136,706.917,452.412,19.829,0,0,0
137,706.749,452.438,19.755,0,0,0
138,706.601,452.555,19.696,0,0,0
139,706.492,452.649,19.652,0,0,0
140,706.372,452.700,19.654,0,0,0
141,706.222,452.808,19.692,0,0,0
142,706.083,452.912,19.814,0,0,0
143,706.031,453.009,19.775,0,0,0
144,705.959,453.138,19.799,0,0,0
145,705.901,453.294,19.767,0,0,0
146,705.820,453.428,19.706,0,0,0
147,705.795,453.560,19.572,0,0,0
148,705.760,453.627,19.497,0,0,0
149,705.745,453.683,19.417,0,0,0
150,705.683,453.691,19.449,0,0,0
151,705.733,453.691,19.435,0,0,0
152,705.792,453.638,19.461,0,0,0
153,705.891,453.629,19.530,0,0,0
154,705.991,453.639,19.582,0,0,0
155,706.058,453.615,19.611,0,0,0
156,706.141,453.667,19.602,0,0,0
157,706.189,453.678,19.596,0,0,0
158,706.249,453.759,19.531,0,0,0
159,706.214,453.733,19.514,0,0,0
160,706.225,453.756,19.485,0,0,0
161,706.259,453.703,19.394,0,0,0
162,706.315,453.763,19.300,0,0,0
163,706.424,453.786,19.172,0,0,0
164,706.484,453.889,19.167,0,0,0
165,706.569,454.028,19.096,0,0,0
166,706.628,454.176,19.061,0,0,0
167,706.745,454.353,19.016,0,0,0
168,706.766,454.429,18.949,0,0,0
169,706.781,454.456,18.967,0,0,0
170,706.841,454.507,18.840,0,0,0
171,706.768,454.565,18.759,0,0,0
172,706.712,454.620,18.705,0,0,0
173,706.619,454.700,18.609,0,0,0
174,706.566,454.807,18.501,0,0,0
175,706.537,454.855,18.385,0,0,0
176,706.482,454.882,18.416,0,0,0
177,706.544,454.900,18.371,0,0,0
178,706.579,454.992,18.342,0,0,0
179,706.516,454.980,18.393,0,0,0
180,706.519,455.071,18.378,0,0,0
181,706.426,455.067,18.446,0,0,0
182,706.312,455.024,18.445,0,0,0
183,706.296,454.963,18.464,0,0,0
184,706.231,454.846,18.446,0,0,0
185,706.205,454.784,18.377,0,0,0
186,706.127,454.717,18.348,0,0,0
187,706.064,454.672,18.332,0,0,0
188,705.889,454.596,18.397,0,0,0
189,705.782,454.563,18.419,0,0,0
190,705.657,454.509,18.527,0,0,0
191,705.549,454.403,18.544,0,0,0
192,705.439,454.258,18.596,0,0,0
193,705.338,454.077,18.669,0,0,0
194,705.172,453.883,18.745,0,0,0
195,705.027,453.756,18.749,0,0,0
196,704.859,453.653,18.768,0,0,0
197,704.652,453.612,18.739,0,0,0
198,704.448,453.604,18.745,0,0,0
199,704.290,453.639,18.663,0,0,0
200,704.150,453.672,18.682,0,0,0
201,704.047,453.666,18.662,0,0,0
202,703.984,453.712,18.661,0,0,0
203,703.874,453.708,18.701,0,0,0
204,703.810,453.740,18.720,0,0,0
205,703.595,453.786,18.790,0,0,0
206,703.463,453.896,18.756,0,0,0
207,703.353,453.929,18.688,0,0,0
208,703.193,453.925,18.642,0,0,0
209,703.062,453.967,18.578,0,0,0
210,702.936,454.041,18.521,0,0,0
211,702.884,454.090,18.436,0,0,0
212,702.834,454.179,18.389,0,0,0
213,702.721,454.200,18.418,0,0,0
214,702.683,454.317,18.344,0,0,0
215,702.658,454.371,18.350,0,0,0
216,702.584,454.443,18.351,0,0,0
217,702.513,454.464,18.277,0,0,0
218,702.495,454.565,18.196,0,0,0
219,702.403,454.647,18.100,0,0,0
220,702.410,454.739,17.984,0,0,0
221,702.264,454.749,17.974,0,0,0
222,702.232,454.837,17.855,0,0,0
223,702.137,454.892,17.801,0,0,0
224,702.101,454.980,17.637,0,0,0
225,702.012,455.074,17.594,0,0,0
226,701.834,455.188,17.621,0,0,0
227,701.851,455.377,17.509,0,0,0
228,701.856,455.563,17.409,0,0,0
229,701.835,455.778,17.283,0,0,0
230,701.854,456.046,17.177,0,0,0
231,701.796,456.245,17.115,0,0,0
232,701.735,456.366,17.046,0,0,0
233,701.727,456.560,16.893,0,0,0
234,701.723,456.736,16.727,0,0,0
235,701.596,456.910,16.691,0,0,0
236,701.510,457.115,16.690,0,0,0
237,701.555,457.385,16.528,0,0,0
238,701.587,457.577,16.447,0,0,0
239,701.648,457.806,16.345,0,0,0
240,701.789,458.058,16.202,0,0,0
241,701.847,458.259,16.068,0,0,0
242,701.778,458.342,16.091,0,0,0
243,701.869,458.573,15.904,0,0,0
244,701.865,458.730,15.828,0,0,0
245,701.935,458.918,15.672,0,0,0
246,701.992,459.184,15.492,0,0,0
247,702.021,459.395,15.349,0,0,0
248,702.184,459.711,15.129,0,0,0
249,702.233,459.873,15.014,0,0,0
250,702.291,460.009,14.926,0,0,0
251,702.557,460.294,14.686,0,0,0
252,702.741,460.474,14.482,0,0,0
253,702.921,460.701,14.278,0,0,0
254,703.094,460.967,14.099,0,0,0
255,703.245,461.166,13.920,0,0,0
256,703.415,461.405,13.709,0,0,0
257,703.512,461.602,13.571,0,0,0
258,703.806,461.968,13.282,0,0,0
259,703.987,462.299,13.072,0,0,0
260,704.162,462.627,12.843,0,0,0
261,704.487,463.082,12.480,0,0,0
262,704.711,463.393,12.256,0,0,0
263,704.949,463.693,12.084,0,0,0
264,705.207,463.940,11.939,0,0,0
265,705.569,464.302,11.661,0,0,0
266,705.890,464.620,11.341,0,0,0
267,706.228,465.053,10.977,0,0,0
268,706.444,465.493,10.719,0,0,0
269,706.667,465.895,10.436,0,0,0
270,706.919,466.288,10.088,0,0,0
271,707.237,466.675,9.752,0,0,0
272,707.457,466.894,9.543,0,0,0
273,707.696,466.986,9.355,0,0,0
274,707.985,467.160,9.162,0,0,0
275,708.322,467.374,8.877,0,0,0
276,708.624,467.673,8.573,0,0,0
277,708.876,467.962,8.305,0,0,0
278,709.111,468.249,8.007,0,0,0
279,709.284,468.490,7.766,0,0,0
280,709.507,468.736,7.515,0,0,0
281,709.762,468.910,7.217,0,0,0
282,710.014,469.029,6.899,0,0,0
283,710.159,469.137,6.660,0,0,0
284,710.153,469.099,6.502,0,0,0
285,710.047,469.051,6.365,0,0,0
286,709.833,468.875,6.261,0,0,0
287,709.494,468.698,6.214,0,0,0
288,709.008,468.323,6.170,0,0,0
289,708.400,467.716,6.254,0,0,0
290,707.551,466.780,6.626,0,0,0
291,706.748,465.707,6.807,0,0,0
292,705.714,464.278,7.302,0,0,0
293,704.433,462.666,7.883,0,0,0
294,702.941,460.869,8.651,0,0,0
295,701.211,458.895,9.449,0,0,0
296,699.297,456.853,10.278,0,0,0
297,697.053,454.618,11.272,0,0,0
298,694.524,452.416,12.423,0,0,0
299,691.789,450.220,13.621,0,0,0
300,688.531,447.864,15.248,0,0,0
301,685.074,445.373,17.027,0,0,0
302,681.409,442.663,19.107,0,0,0
303,677.506,439.689,21.432,0,0,0
304,673.338,436.374,24.056,0,0,0
305,668.962,432.827,26.925,0,0,0
306,664.420,429.025,30.026,0,0,0
307,659.623,424.882,33.266,0,0,0
308,654.566,420.364,36.805,0,0,0
309,648.980,415.473,40.822,0,0,0
310,643.025,410.270,45.137,0,0,0
311,636.410,404.507,50.212,0,0,0
312,629.236,398.172,55.935,0,0,0
313,621.611,391.230,62.364,0,0,0
314,613.453,383.463,69.692,0,0,0
315,604.839,375.077,78.126,0,0,0
316,596.113,365.984,87.337,0,0,0
317,587.046,356.120,97.583,0,0,0
318,577.835,345.663,108.800,0,0,0
319,568.635,334.757,120.751,0,0,0
320,559.207,323.497,133.809,0,0,0
321,549.670,312.064,147.755,0,0,0
322,539.869,300.448,162.853,0,0,0
323,530.095,288.732,178.901,0,0,0
324,520.276,276.959,196.142,0,0,0
325,510.677,264.994,214.385,0,0,0
326,501.387,253.305,233.629,0,0,0
327,492.369,241.814,253.586,0,0,0
328,483.836,230.825,274.029,0,0,0
329,475.803,220.414,294.992,0,0,0
330,468.238,210.536,316.396,0,0,0
331,461.200,201.156,338.110,0,0,0
332,454.591,192.246,360.215,0,0,0
333,448.444,184.103,382.519,0,0,0
334,442.654,176.766,405.113,0,0,0
335,437.155,170.244,428.007,0,0,0
336,432.162,164.298,450.967,0,0,0
337,427.753,158.786,474.006,0,0,0
338,423.829,153.731,497.012,0,0,0
339,420.466,149.187,519.838,0,0,0
340,417.499,145.388,542.542,0,0,0
341,414.890,142.318,565.001,0,0,0
342,412.837,139.987,587.114,0,0,0
343,411.192,138.111,608.977,0,0,0
344,410.086,136.672,630.382,0,0,0
345,409.551,135.558,651.170,0,0,0
346,409.388,134.873,671.565,0,0,0
347,409.605,134.604,691.434,0,0,0
348,410.120,134.864,710.958,0,0,0
349,410.868,135.646,730.031,0,0,0
350,411.906,136.710,748.560,0,0,0
351,413.338,137.900,766.511,0,0,0
352,415.106,139.205,783.831,0,0,0
353,417.089,140.692,800.597,0,0,0
354,419.230,142.515,816.928,0,0,0
355,421.537,144.567,832.673,0,0,0
356,424.030,146.801,847.888,0,0,0
357,426.724,149.196,862.507,0,0,0
358,429.505,151.610,876.403,0,0,0
359,432.401,154.062,889.323,0,0,0
360,435.266,156.466,901.228,0,0,0
361,437.948,158.855,911.938,0,0,0
362,440.372,161.160,921.311,0,0,0
363,442.573,163.419,929.482,0,0,0
364,444.469,165.536,936.595,0,0,0
365,446.263,167.458,942.810,0,0,0
366,448.116,169.140,948.224,0,0,0
367,0,0,0,0,0,0
368,0,0,0,0,0,0
369,0,0,0,0,0,0
370,0,0,0,0,0,0
371,0,0,0,0,0,0
372,0,0,0,0,0,0
373,0,0,0,0,0,0
374,0,0,0,0,0,0
375,0,0,0,0,0,0
376,0,0,0,0,0,0
377,0,0,0,0,0,0
378,0,0,0,0,0,0
379,0,0,0,0,0,0
380,0,0,0,0,0,0
381,0,0,0,0,0,0
382,0,0,0,0,0,0
383,0,0,0,0,0,0
384,0,0,0,0,0,0
385,0,0,0,0,0,0
386,0,0,0,0,0,0
387,0,0,0,0,0,0
388,0,0,0,0,0,0
389,0,0,0,0,0,0
390,0,0,0,0,0,0
391,0,0,0,0,0,0
392,0,0,0,0,0,0
393,0,0,0,0,0,0
394,0,0,0,0,0,0
395,0,0,0,0,0,0
396,0,0,0,0,0,0
397,0,0,0,464.403,167.301,955.907
398,0,0,0,464.301,166.832,954.588
399,0,0,0,464.199,166.348,953.377
400,0,0,0,464.021,165.883,952.164
401,0,0,0,463.766,165.411,950.940
402,0,0,0,463.521,164.969,949.658
403,0,0,0,463.165,164.556,948.361
404,0,0,0,462.880,164.139,947.160
405,0,0,0,462.609,163.770,946.102
406,0,0,0,462.442,163.368,945.124
407,0,0,0,462.271,162.986,944.278
408,0,0,0,462.180,162.636,943.453
409,0,0,0,462.058,162.267,942.660
410,0,0,0,461.930,161.973,941.874
411,0,0,0,461.756,161.718,941.055
412,0,0,0,461.530,161.476,940.214
413,0,0,0,461.276,161.208,939.323
414,0,0,0,461.011,160.942,938.385
415,0,0,0,460.721,160.681,937.451
416,0,0,0,460.421,160.394,936.446
417,0,0,0,460.150,160.156,935.469
418,0,0,0,459.947,159.879,934.382
419,0,0,0,459.721,159.553,933.249
420,0,0,0,459.479,159.157,932.053
421,0,0,0,459.244,158.795,930.742
422,0,0,0,458.955,158.426,929.381
423,0,0,0,458.580,158.133,928.084
424,0,0,0,458.214,157.859,926.629
425,0,0,0,457.799,157.595,925.183
426,0,0,0,457.440,157.352,923.680
427,0,0,0,457.149,157.043,922.139
428,0,0,0,456.883,156.595,920.512
429,0,0,0,456.612,156.102,918.784
430,0,0,0,456.260,155.602,916.936
431,0,0,0,455.915,155.089,914.957
432,0,0,0,455.466,154.592,912.890
433,0,0,0,455.113,154.146,910.736
434,0,0,0,454.636,153.618,908.575
435,0,0,0,454.233,153.091,906.298
436,0,0,0,453.722,152.564,904.137
437,0,0,0,453.260,152.081,901.998
438,0,0,0,452.782,151.617,900.009
439,0,0,0,452.362,151.244,898.164
440,0,0,0,452.046,150.839,896.410
441,0,0,0,451.760,150.423,894.845
442,0,0,0,451.569,149.967,893.402
443,0,0,0,451.382,149.497,892.073
444,0,0,0,451.198,149.053,890.847
445,0,0,0,451.032,148.717,889.826
446,0,0,0,450.818,148.459,888.934
447,0,0,0,450.733,148.267,888.034
448,0,0,0,450.551,148.025,887.250
449,0,0,0,450.453,147.754,886.437
450,0,0,0,450.407,147.479,885.658
451,0,0,0,450.312,147.171,884.917
452,0,0,0,450.254,146.962,884.232
453,0,0,0,450.156,146.698,883.591
454,0,0,0,450.151,146.443,882.959
455,0,0,0,450.135,146.132,882.387
456,0,0,0,450.166,145.783,881.778
457,0,0,0,450.216,145.451,881.206
458,0,0,0,450.243,145.131,880.645
459,0,0,0,450.344,144.840,880.145
460,0,0,0,450.420,144.543,879.629
461,0,0,0,450.482,144.262,879.140
462,0,0,0,450.539,143.959,878.601
463,0,0,0,450.536,143.675,878.030
464,0,0,0,450.495,143.492,877.513
465,0,0,0,450.441,143.292,876.936
466,0,0,0,450.442,143.153,876.348
467,0,0,0,450.421,142.985,875.772
468,0,0,0,450.412,142.810,875.199
469,0,0,0,450.412,142.647,874.640
470,0,0,0,450.420,142.586,874.144
471,0,0,0,450.414,142.495,873.727
472,0,0,0,450.453,142.471,873.399
473,0,0,0,450.470,142.454,873.084
474,0,0,0,450.569,142.439,872.726
475,0,0,0,450.651,142.435,872.427
476,0,0,0,450.695,142.435,872.150
477,0,0,0,450.754,142.442,871.920
478,0,0,0,450.879,142.503,871.783
479,0,0,0,450.957,142.614,871.705
480,0,0,0,451.082,142.714,871.624
481,0,0,0,451.200,142.761,871.523
482,0,0,0,451.289,142.784,871.410
483,0,0,0,451.452,142.833,871.326
484,0,0,0,451.633,142.929,871.265
485,0,0,0,451.792,143.024,871.235
486,0,0,0,451.965,143.129,871.282
487,0,0,0,452.176,143.230,871.308
488,0,0,0,452.438,143.269,871.295
489,0,0,0,452.675,143.343,871.337
490,0,0,0,452.923,143.452,871.372
491,0,0,0,453.131,143.608,871.529
492,0,0,0,453.407,143.810,871.687
493,0,0,0,453.681,143.954,871.866
494,0,0,0,453.966,144.047,872.018
495,0,0,0,454.241,144.145,872.160
496,0,0,0,454.472,144.291,872.354
497,0,0,0,454.695,144.492,872.598
498,0,0,0,454.934,144.782,872.949
499,0,0,0,455.195,145.066,873.288
500,0,0,0,455.435,145.290,873.662
501,0,0,0,455.766,145.552,873.986
502,0,0,0,455.999,145.819,874.382
503,0,0,0,456.182,146.157,874.808
504,0,0,0,456.293,146.556,875.312
505,0,0,0,456.392,146.987,875.799
506,0,0,0,456.513,147.380,876.313
507,0,0,0,456.628,147.803,876.772
508,0,0,0,456.691,148.195,877.195
509,0,0,0,456.793,148.690,877.645
510,0,0,0,456.800,149.198,878.151
511,0,0,0,456.810,149.779,878.687
512,0,0,0,456.818,150.315,879.210
513,0,0,0,456.850,150.816,879.774
514,0,0,0,456.967,151.328,880.284
515,0,0,0,456.986,151.791,880.832
516,0,0,0,457.066,152.339,881.427
517,0,0,0,457.101,152.822,881.979
518,0,0,0,457.142,153.289,882.527
519,0,0,0,457.096,153.714,882.977
520,0,0,0,457.056,154.116,883.447
521,0,0,0,456.928,154.490,883.786
522,0,0,0,456.748,154.911,884.174
523,0,0,0,456.562,155.322,884.477
524,0,0,0,456.338,155.719,884.797
525,0,0,0,456.088,156.090,885.145
526,0,0,0,455.883,156.381,885.482
527,0,0,0,455.747,156.660,885.825
528,0,0,0,455.606,156.898,886.209
529,0,0,0,455.436,157.208,886.677
530,0,0,0,455.255,157.503,887.204
531,0,0,0,455.197,157.775,887.687
532,0,0,0,455.114,157.994,888.212
533,0,0,0,455.035,158.166,888.589
534,0,0,0,454.884,158.386,888.976
535,0,0,0,454.639,158.629,889.242
536,0,0,0,454.352,158.967,889.507
537,0,0,0,454.151,159.287,889.688
538,0,0,0,453.928,159.593,889.846
539,0,0,0,453.741,159.921,890.079
540,0,0,0,453.565,160.283,890.394
541,0,0,0,453.349,160.779,890.849
542,0,0,0,453.184,161.401,891.462
543,0,0,0,453.060,162.042,892.112
544,0,0,0,452.963,162.655,892.871
545,0,0,0,452.935,163.223,893.573
546,0,0,0,452.921,163.761,894.274
547,0,0,0,452.975,164.310,894.969
548,0,0,0,453.059,164.840,895.677
549,0,0,0,453.187,165.394,896.365
550,0,0,0,453.365,165.843,897.016
551,0,0,0,453.614,166.209,897.547
552,0,0,0,453.905,166.500,898.018
553,0,0,0,454.142,166.800,898.405
554,0,0,0,454.257,167.114,898.713
555,0,0,0,454.385,167.426,898.888
556,0,0,0,454.448,167.726,898.951
557,0,0,0,454.453,167.961,898.892
558,0,0,0,454.425,168.175,898.844
559,0,0,0,454.337,168.398,898.744
560,0,0,0,454.225,168.741,898.780
561,0,0,0,454.098,169.155,898.802
562,0,0,0,453.808,169.589,898.889
563,0,0,0,453.671,170.010,898.908
564,0,0,0,453.466,170.332,898.914
565,0,0,0,453.319,170.691,898.915
566,0,0,0,453.135,171.036,898.932
567,0,0,0,452.983,171.424,898.989
568,0,0,0,452.821,171.832,899.105
569,0,0,0,452.714,172.229,899.257
570,0,0,0,452.635,172.498,899.375
571,0,0,0,452.544,172.744,899.435
572,0,0,0,452.446,172.967,899.445
573,0,0,0,452.302,173.213,899.533
574,0,0,0,452.157,173.477,899.625
575,0,0,0,452.027,173.727,899.714
576,0,0,0,451.936,173.919,899.762
577,0,0,0,451.887,173.986,899.737
578,0,0,0,451.880,173.994,899.656
579,0,0,0,451.916,173.988,899.597
580,0,0,0,452.029,174.047,899.543
581,0,0,0,452.020,174.163,899.603
582,0,0,0,452.072,174.218,899.633
583,0,0,0,452.217,174.195,899.543
584,0,0,0,452.361,174.089,899.392
585,0,0,0,452.527,173.945,899.149
586,0,0,0,452.630,173.795,898.966
587,0,0,0,452.756,173.662,898.742
588,0,0,0,452.818,173.559,898.594
589,0,0,0,452.848,173.473,898.433
590,0,0,0,452.841,173.377,898.225
591,0,0,0,452.841,173.270,897.972
592,0,0,0,452.861,173.095,897.672
593,0,0,0,453.002,172.874,897.286
594,0,0,0,453.150,172.567,896.888
595,0,0,0,453.280,172.245,896.546
596,0,0,0,453.389,171.908,896.176
597,0,0,0,453.551,171.644,895.832
598,0,0,0,453.604,171.339,895.467
599,0,0,0,453.637,171.034,895.133
600,0,0,0,453.749,170.683,894.686
601,0,0,0,453.857,170.205,894.189
602,0,0,0,454.000,169.694,893.716
603,0,0,0,454.058,169.168,893.265
604,0,0,0,454.148,168.721,892.855
605,0,0,0,454.206,168.356,892.471
606,0,0,0,454.170,167.922,892.099
607,0,0,0,454.174,167.461,891.608
608,0,0,0,454.125,166.917,891.069
609,0,0,0,454.112,166.344,890.427
610,0,0,0,453.983,165.773,889.748
611,0,0,0,453.897,165.245,888.989
612,0,0,0,453.786,164.707,888.160
613,0,0,0,453.676,164.144,887.242
614,0,0,0,453.525,163.575,886.147
615,0,0,0,453.343,162.941,884.866
616,0,0,0,453.113,162.285,883.436
617,0,0,0,452.868,161.577,881.841
618,0,0,0,452.617,160.867,880.030
619,0,0,0,452.387,160.100,877.945
620,0,0,0,452.167,159.327,875.658
621,0,0,0,451.893,158.501,873.099
622,0,0,0,451.757,157.634,870.183
623,0,0,0,451.758,156.672,866.865
624,0,0,0,451.810,155.513,863.097
625,0,0,0,451.999,154.189,858.751
626,0,0,0,452.188,152.649,853.563
627,0,0,0,452.256,150.995,847.468
628,0,0,0,452.164,149.270,840.207
629,0,0,0,451.831,147.680,831.719
630,0,0,0,451.098,146.242,822.127
631,0,0,0,450.206,145.082,811.331
632,0,0,0,449.198,143.962,799.578
633,0,0,0,448.325,142.811,786.917
634,0,0,0,447.641,141.613,773.628
635,0,0,0,447.250,140.346,759.655
636,0,0,0,447.068,139.139,745.218
637,0,0,0,447.033,138.144,730.434
638,0,0,0,447.095,137.471,715.373
639,0,0,0,447.321,137.057,699.849
640,0,0,0,447.628,136.832,683.918
641,0,0,0,448.086,136.853,667.415
642,0,0,0,448.795,137.127,650.440
643,0,0,0,449.728,137.732,633.036
644,0,0,0,450.945,138.610,615.293
645,0,0,0,452.524,139.709,597.257
646,0,0,0,454.450,141.064,578.995
647,0,0,0,456.640,142.676,560.418
648,0,0,0,459.094,144.618,541.550
649,0,0,0,461.876,146.884,522.303
650,0,0,0,464.969,149.550,502.865
651,0,0,0,468.446,152.689,483.196
652,0,0,0,472.186,156.260,463.475
653,0,0,0,476.167,160.324,443.766
654,0,0,0,480.421,164.762,424.025
655,0,0,0,484.910,169.589,404.439
656,0,0,0,489.815,174.746,384.721
657,0,0,0,494.945,180.425,365.311
658,0,0,0,500.237,186.450,346.326
659,0,0,0,505.786,192.999,327.833
660,0,0,0,511.624,199.987,309.742
661,0,0,0,517.634,207.381,292.093
662,0,0,0,523.930,214.988,274.766
663,0,0,0,530.393,223.058,257.792
664,0,0,0,536.963,231.372,241.288
665,0,0,0,543.593,240.086,225.439
666,0,0,0,550.205,249.073,210.204
667,0,0,0,556.965,258.342,195.492
668,0,0,0,563.837,267.904,181.395
669,0,0,0,570.798,277.716,167.694
670,0,0,0,577.787,287.735,154.653
671,0,0,0,584.775,297.939,142.364
672,0,0,0,591.943,308.082,130.722
673,0,0,0,599.168,317.767,119.932
674,0,0,0,606.713,327.039,109.591
675,0,0,0,614.226,335.942,99.931
676,0,0,0,621.553,344.732,90.875
677,0,0,0,628.288,353.282,82.567
678,0,0,0,634.556,361.795,74.966
679,0,0,0,640.483,370.043,68.054
680,0,0,0,646.302,377.573,61.783
681,0,0,0,651.935,384.515,56.239
682,0,0,0,657.656,390.681,50.972
683,0,0,0,663.199,396.454,46.131
684,0,0,0,668.378,401.989,41.671
685,0,0,0,672.940,407.482,37.749
686,0,0,0,676.949,412.947,34.220
687,0,0,0,680.727,418.217,30.915
688,0,0,0,684.358,423.180,27.904
689,0,0,0,687.697,427.536,25.408
690,0,0,0,691.074,431.373,23.152
691,0,0,0,694.301,434.748,21.275
692,0,0,0,697.475,437.855,19.403
693,0,0,0,700.270,440.898,17.763
694,0,0,0,702.666,443.880,16.184
695,0,0,0,704.609,446.938,14.792
696,0,0,0,706.347,450.132,13.394
697,0,0,0,707.710,453.079,12.311
698,0,0,0,708.911,455.650,11.318
699,0,0,0,709.787,457.657,10.762
700,0,0,0,710.687,459.279,10.355
701,0,0,0,711.210,460.316,10.270
702,0,0,0,711.687,461.064,10.291
703,0,0,0,711.875,461.495,10.589
704,0,0,0,711.971,461.670,10.868
705,0,0,0,712.018,461.671,11.283
706,0,0,0,712.008,461.525,11.630
707,0,0,0,711.893,461.244,12.124
708,0,0,0,711.663,460.809,12.649
709,0,0,0,711.289,460.130,13.322
710,0,0,0,710.983,459.500,13.806
711,0,0,0,710.338,458.627,14.538
712,0,0,0,709.806,457.877,15.204
713,0,0,0,709.365,457.201,15.640
714,0,0,0,708.782,456.545,16.188
715,0,0,0,708.318,455.976,16.650
716,0,0,0,707.777,455.454,17.079
717,0,0,0,707.177,454.937,17.512
718,0,0,0,706.536,454.352,18.017
719,0,0,0,705.938,453.823,18.515
720,0,0,0,705.269,453.157,19.070
721,0,0,0,704.701,452.568,19.529
722,0,0,0,704.040,452.092,20.031
723,0,0,0,703.436,451.606,20.484
724,0,0,0,702.791,451.196,20.897
725,0,0,0,702.233,450.885,21.244
726,0,0,0,701.771,450.643,21.475
727,0,0,0,701.150,450.384,21.899
728,0,0,0,700.673,450.201,22.127
729,0,0,0,700.204,450.066,22.487
730,0,0,0,699.873,449.959,22.662
731,0,0,0,699.476,449.852,22.895
732,0,0,0,699.153,449.804,23.036
733,0,0,0,698.735,449.781,23.308
734,0,0,0,698.335,449.818,23.460
735,0,0,0,697.960,449.854,23.655
736,0,0,0,697.625,449.882,23.844
737,0,0,0,697.428,449.951,23.902
738,0,0,0,697.305,450.105,23.927
739,0,0,0,697.123,450.254,24.050
740,0,0,0,696.954,450.411,24.135
741,0,0,0,696.776,450.587,24.190
742,0,0,0,696.721,450.839,24.148
743,0,0,0,696.610,451.059,24.114
744,0,0,0,696.416,451.249,24.146
745,0,0,0,696.353,451.405,24.073
746,0,0,0,696.208,451.599,24.093
747,0,0,0,696.068,451.850,24.108
748,0,0,0,695.959,452.100,24.036
749,0,0,0,695.819,452.303,24.005
750,0,0,0,695.722,452.486,23.962
751,0,0,0,695.648,452.683,23.870
752,0,0,0,695.538,452.939,23.873
753,0,0,0,695.406,453.173,23.847
754,0,0,0,695.404,453.550,23.668
755,0,0,0,695.356,453.904,23.488
756,0,0,0,695.336,454.292,23.387
757,0,0,0,695.320,454.623,23.280
758,0,0,0,695.351,454.911,23.144
759,0,0,0,695.329,455.167,23.061
760,0,0,0,695.401,455.356,22.978
761,0,0,0,695.373,455.454,22.982
762,0,0,0,695.349,455.518,22.966
763,0,0,0,695.395,455.639,22.986
764,0,0,0,695.385,455.806,22.947
765,0,0,0,695.398,455.975,22.881
766,0,0,0,695.355,456.177,22.850
767,0,0,0,695.300,456.339,22.867
768,0,0,0,695.315,456.522,22.780
769,0,0,0,695.385,456.646,22.670
770,0,0,0,695.358,456.734,22.668
771,0,0,0,695.379,456.788,22.616
772,0,0,0,695.445,456.899,22.556
773,0,0,0,695.438,456.872,22.553
774,0,0,0,695.399,456.919,22.598
775,0,0,0,695.458,456.913,22.521
776,0,0,0,695.379,456.879,22.557
777,0,0,0,695.370,456.865,22.563
778,0,0,0,695.423,456.936,22.477
779,0,0,0,695.361,456.955,22.489
780,0,0,0,695.371,457.054,22.421
781,0,0,0,695.472,457.161,22.316
782,0,0,0,695.420,457.215,22.306
783,0,0,0,695.464,457.225,22.328
784,0,0,0,695.539,457.194,22.294
785,0,0,0,695.509,457.100,22.365
786,0,0,0,695.480,457.045,22.402
787,0,0,0,695.485,457.061,22.353
788,0,0,0,695.517,457.050,22.332
789,0,0,0,695.457,456.999,22.386
790,0,0,0,695.451,456.965,22.379
791,0,0,0,695.456,456.849,22.422
792,0,0,0,695.496,456.815,22.356
793,0,0,0,695.508,456.726,22.401
794,0,0,0,695.422,456.687,22.418
795,0,0,0,695.382,456.622,22.392
796,0,0,0,695.314,456.615,22.401
797,0,0,0,695.272,456.571,22.460
798,0,0,0,695.210,456.525,22.518
799,0,0,0,695.238,456.502,22.547
800,0,0,0,695.219,456.436,22.592
801,0,0,0,695.265,456.440,22.610
802,0,0,0,695.220,456.435,22.665
803,0,0,0,695.178,456.456,22.678
804,0,0,0,695.134,456.490,22.699
805,0,0,0,695.026,456.465,22.727
806,0,0,0,694.986,456.473,22.805
807,0,0,0,694.943,456.365,22.837
808,0,0,0,694.928,456.260,22.959
809,0,0,0,694.958,456.159,23.026
810,0,0,0,694.861,456.078,23.162
811,0,0,0,694.753,456.043,23.284
812,0,0,0,694.716,456.028,23.348
813,0,0,0,694.627,455.993,23.471
814,0,0,0,694.599,455.976,23.475
815,0,0,0,694.490,455.872,23.641
816,0,0,0,694.469,455.728,23.680
817,0,0,0,694.430,455.556,23.729
818,0,0,0,694.409,455.477,23.795
819,0,0,0,694.420,455.387,23.766
820,0,0,0,694.365,455.304,23.799
821,0,0,0,694.330,455.326,23.755
822,0,0,0,694.242,455.342,23.751
823,0,0,0,694.243,455.364,23.735
824,0,0,0,694.263,455.396,23.698
825,0,0,0,694.338,455.560,23.527
826,0,0,0,694.349,455.698,23.498
827,0,0,0,694.335,455.780,23.478
828,0,0,0,694.383,455.940,23.363
829,0,0,0,694.256,455.987,23.421
830,0,0,0,694.320,455.992,23.367
831,0,0,0,694.312,455.971,23.368
832,0,0,0,694.445,456.027,23.272
833,0,0,0,694.544,456.056,23.234
834,0,0,0,694.594,456.167,23.144
835,0,0,0,694.619,456.356,23.048
836,0,0,0,694.569,456.506,23.027
837,0,0,0,694.592,456.730,22.923
838,0,0,0,694.608,456.880,22.844
839,0,0,0,694.691,457.045,22.688
840,0,0,0,694.718,457.197,22.669
841,0,0,0,694.754,457.370,22.576
842,0,0,0,694.796,457.522,22.514
843,0,0,0,694.880,457.680,22.426
844,0,0,0,694.872,457.815,22.396
845,0,0,0,694.964,457.998,22.310
846,0,0,0,695.035,458.161,22.240
847,0,0,0,695.109,458.319,22.240
848,0,0,0,695.234,458.441,22.159
849,0,0,0,695.473,458.578,22.015
850,0,0,0,695.579,458.680,22.023
851,0,0,0,695.675,458.774,21.967
852,0,0,0,695.775,458.888,21.939
853,0,0,0,695.891,459.082,21.802
854,0,0,0,695.978,459.286,21.656
855,0,0,0,696.003,459.497,21.543
856,0,0,0,696.103,459.829,21.362
857,0,0,0,696.315,460.144,21.156
858,0,0,0,696.563,460.551,20.895
859,0,0,0,696.832,460.950,20.627
860,0,0,0,697.185,461.430,20.338
861,0,0,0,697.452,461.939,20.096
862,0,0,0,697.692,462.539,19.854
863,0,0,0,697.961,463.202,19.478
864,0,0,0,698.249,463.896,19.092
865,0,0,0,698.529,464.590,18.690
866,0,0,0,698.836,465.326,18.271
867,0,0,0,699.069,465.977,17.885
868,0,0,0,699.329,466.565,17.561
869,0,0,0,699.522,467.054,17.305
870,0,0,0,699.786,467.553,16.938
871,0,0,0,699.970,468.042,16.667
872,0,0,0,700.109,468.396,16.469
873,0,0,0,700.140,468.621,16.379
874,0,0,0,700.319,468.837,16.196
875,0,0,0,700.289,468.872,16.248
876,0,0,0,700.398,468.871,16.233
877,0,0,0,700.479,468.788,16.269
878,0,0,0,700.633,468.700,16.259
879,0,0,0,700.806,468.615,16.251
880,0,0,0,700.989,468.634,16.251
881,0,0,0,701.291,468.863,15.990
882,0,0,0,701.626,469.265,15.664
883,0,0,0,701.887,469.673,15.385
884,0,0,0,702.179,470.056,15.105
885,0,0,0,702.441,470.437,14.839
886,0,0,0,702.733,470.730,14.618
887,0,0,0,703.117,471.036,14.363
888,0,0,0,703.523,471.273,14.050
889,0,0,0,703.816,471.514,13.856
890,0,0,0,704.074,471.698,13.684
891,0,0,0,704.383,471.981,13.413
892,0,0,0,704.758,472.335,13.116
893,0,0,0,705.187,472.657,12.710
894,0,0,0,705.474,472.937,12.466
895,0,0,0,705.902,473.315,12.036
896,0,0,0,706.391,473.732,11.545
897,0,0,0,706.746,474.176,11.187
898,0,0,0,707.077,474.540,10.850
899,0,0,0,707.545,474.997,10.427
900,0,0,0,707.837,475.251,10.167
901,0,0,0,708.228,475.490,9.899
902,0,0,0,708.621,475.690,9.636
903,0,0,0,709.095,475.938,9.316
904,0,0,0,709.450,476.160,9.036
905,0,0,0,709.793,476.432,8.818
906,0,0,0,710.218,476.780,8.429
907,0,0,0,710.637,477.035,8.083
908,0,0,0,711.008,477.232,7.847
909,0,0,0,711.421,477.434,7.585
910,0,0,0,711.856,477.639,7.222
911,0,0,0,712.269,477.906,6.914
912,0,0,0,712.558,478.174,6.662
913,0,0,0,712.802,478.436,6.465
914,0,0,0,713.244,478.826,5.999
915,0,0,0,713.454,478.927,5.876
916,0,0,0,713.764,479.053,5.637
917,0,0,0,714.010,479.144,5.464
918,0,0,0,714.358,479.250,5.168
919,0,0,0,714.560,479.284,5.002
920,0,0,0,714.718,479.354,4.857
921,0,0,0,714.731,479.435,4.776
922,0,0,0,714.694,479.445,4.751
923,0,0,0,714.706,479.485,4.778
924,0,0,0,714.734,479.369,4.867
925,0,0,0,714.805,479.099,5.038
926,0,0,0,714.782,478.674,5.359
927,0,0,0,714.688,478.110,5.811
928,0,0,0,714.469,477.482,6.292
929,0,0,0,714.262,476.855,6.759
930,0,0,0,714.085,476.297,7.167
931,0,0,0,713.888,475.739,7.500
932,0,0,0,713.819,475.246,7.774
933,0,0,0,713.689,474.747,8.072
934,0,0,0,713.524,474.141,8.344
935,0,0,0,713.347,473.442,8.689
936,0,0,0,713.142,472.637,9.024
937,0,0,0,712.667,471.581,9.516
938,0,0,0,712.169,470.395,9.981
939,0,0,0,711.481,468.941,10.595
940,0,0,0,710.543,467.148,11.500
941,0,0,0,709.571,465.056,12.343
942,0,0,0,708.281,462.360,13.598
943,0,0,0,706.613,459.239,14.996
944,0,0,0,704.401,455.482,16.851
945,0,0,0,701.852,451.257,18.950
946,0,0,0,698.663,446.211,21.645
947,0,0,0,694.994,440.470,24.809
948,0,0,0,690.968,434.014,28.424
949,0,0,0,686.189,426.707,32.826
950,0,0,0,680.833,418.563,37.986
951,0,0,0,674.885,409.594,43.897
952,0,0,0,668.296,399.708,50.711
953,0,0,0,661.441,389.138,58.281
954,0,0,0,654.289,378.024,66.616
955,0,0,0,646.821,366.404,75.829
956,0,0,0,639.097,354.472,85.860
957,0,0,0,630.901,342.206,96.853
958,0,0,0,622.410,329.655,108.786
959,0,0,0,613.596,316.740,121.783
960,0,0,0,604.460,303.447,135.971
961,0,0,0,595.167,289.778,151.362
962,0,0,0,585.790,275.824,167.891
963,0,0,0,576.258,261.739,185.876
964,0,0,0,566.736,247.720,205.071
965,0,0,0,557.222,233.935,225.382
966,0,0,0,547.726,220.527,246.969
967,0,0,0,538.549,207.655,269.468
968,0,0,0,529.704,195.342,292.985
969,0,0,0,521.385,183.687,317.239
970,0,0,0,513.673,172.766,342.043
971,0,0,0,506.659,162.552,367.251
972,0,0,0,500.333,153.198,392.620
973,0,0,0,494.650,144.650,417.980
974,0,0,0,489.621,137.102,443.322
975,0,0,0,485.174,130.403,468.369
976,0,0,0,481.346,124.632,493.045
977,0,0,0,477.935,119.672,517.244
978,0,0,0,475.058,115.595,540.820
979,0,0,0,472.720,112.287,563.669
980,0,0,0,470.730,109.590,585.718
981,0,0,0,469.198,107.497,606.795
982,0,0,0,468.009,105.916,626.912
983,0,0,0,467.201,104.823,645.932
984,0,0,0,466.597,104.153,664.006
985,0,0,0,466.239,103.773,681.031
986,0,0,0,466.110,103.575,697.102
987,0,0,0,466.168,103.629,712.168
988,0,0,0,466.331,103.857,726.288
989,0,0,0,466.579,104.322,739.464
990,0,0,0,466.796,104.895,751.709
991,0,0,0,467.105,105.573,762.908
992,0,0,0,467.402,106.152,773.144
993,0,0,0,467.692,106.660,782.421
994,0,0,0,467.933,107.201,790.828
995,0,0,0,468.104,107.890,798.525
996,0,0,0,468.169,108.658,805.506
997,0,0,0,468.210,109.495,811.871
998,0,0,0,468.332,110.242,817.567
999,0,0,0,468.581,110.816,822.780
1000,0,0,0,469.091,111.168,827.460
1001,0,0,0,469.711,111.385,831.714
1002,0,0,0,470.298,111.593,835.597
1003,0,0,0,470.822,111.871,839.036
1004,0,0,0,471.233,112.154,842.053
1005,0,0,0,471.632,112.370,844.617
1006,0,0,0,471.993,112.529,846.769
1007,0,0,0,472.306,112.709,848.545
1008,0,0,0,472.620,112.854,850.070
1009,0,0,0,472.968,112.933,851.223
1010,0,0,0,473.358,112.804,852.178
1011,0,0,0,473.770,112.580,852.898
1012,0,0,0,474.156,112.245,853.426
1013,0,0,0,474.429,112.029,853.733
1014,0,0,0,474.612,111.955,853.930
1015,0,0,0,474.613,112.022,854.002
1016,0,0,0,474.625,112.090,853.914
1017,0,0,0,474.698,112.051,853.653
1018,0,0,0,474.916,111.814,853.206
1019,0,0,0,475.131,111.547,852.635
1020,0,0,0,475.366,111.321,852.024
1021,0,0,0,475.622,111.153,851.359
1022,0,0,0,475.779,111.037,850.716
1023,0,0,0,475.948,110.900,850.014
1024,0,0,0,476.230,110.665,849.156
1025,0,0,0,476.415,110.375,848.176
1026,0,0,0,476.559,110.153,847.112
1027,0,0,0,476.635,110.007,845.993
1028,0,0,0,476.620,109.904,844.874
1029,0,0,0,476.639,109.816,843.760
1030,0,0,0,476.613,109.661,842.725
1031,0,0,0,476.731,109.397,841.617
1032,0,0,0,476.774,109.108,840.487
1033,0,0,0,476.832,108.855,839.355
1034,0,0,0,476.840,108.643,838.292
1035,0,0,0,476.850,108.491,837.311
1036,0,0,0,476.898,108.413,836.403
1037,0,0,0,476.912,108.326,835.560
1038,0,0,0,476.986,108.206,834.768
1039,0,0,0,477.079,108.050,833.937
1040,0,0,0,477.210,107.959,833.100
1041,0,0,0,477.223,107.928,832.379
1042,0,0,0,477.331,107.917,831.610
1043,0,0,0,477.413,107.900,830.906
1044,0,0,0,477.499,107.773,830.122
1045,0,0,0,477.672,107.633,829.313
1046,0,0,0,477.825,107.440,828.442
1047,0,0,0,477.943,107.259,827.574
1048,0,0,0,478.004,107.117,826.774
1049,0,0,0,478.002,107.016,825.978
1050,0,0,0,477.976,106.968,825.241
1051,0,0,0,477.894,106.894,824.507
1052,0,0,0,477.834,106.781,823.775
1053,0,0,0,477.742,106.659,823.085
1054,0,0,0,477.697,106.598,822.422
1055,0,0,0,477.559,106.548,821.843
1056,0,0,0,477.384,106.556,821.313
1057,0,0,0,477.209,106.606,820.781
1058,0,0,0,477.065,106.601,820.321
1059,0,0,0,476.937,106.560,819.822
1060,0,0,0,476.870,106.484,819.368
1061,0,0,0,476.810,106.449,818.894
1062,0,0,0,476.751,106.438,818.481
1063,0,0,0,476.649,106.458,818.099
1064,0,0,0,476.607,106.494,817.700
1065,0,0,0,476.556,106.490,817.260
1066,0,0,0,476.545,106.460,816.829
1067,0,0,0,476.519,106.370,816.337
1068,0,0,0,476.552,106.289,815.921
1069,0,0,0,476.548,106.228,815.514
1070,0,0,0,476.498,106.215,815.225
1071,0,0,0,476.461,106.248,814.950
1072,0,0,0,476.399,106.278,814.691
1073,0,0,0,476.349,106.304,814.449
1074,0,0,0,476.306,106.246,814.205
1075,0,0,0,476.262,106.226,814.009
1076,0,0,0,476.299,106.216,813.848
1077,0,0,0,476.343,106.223,813.765
1078,0,0,0,476.479,106.180,813.700
1079,0,0,0,476.570,106.089,813.661
1080,0,0,0,476.740,106.001,813.518
1081,0,0,0,476.774,105.902,813.412
1082,0,0,0,476.843,105.869,813.316
1083,0,0,0,476.867,105.868,813.259
1084,0,0,0,476.898,105.861,813.221
1085,0,0,0,477.007,105.812,813.147
1086,0,0,0,477.113,105.727,813.058
1087,0,0,0,477.249,105.628,812.949
1088,0,0,0,477.318,105.547,812.799
1089,0,0,0,477.388,105.524,812.709
1090,0,0,0,477.446,105.461,812.669
1091,0,0,0,477.569,105.411,812.638
1092,0,0,0,477.666,105.325,812.632
1093,0,0,0,477.762,105.226,812.595
1094,0,0,0,477.857,105.170,812.556
1095,0,0,0,477.932,105.127,812.513
1096,0,0,0,478.035,105.125,812.485
1097,0,0,0,478.131,105.121,812.449
1098,0,0,0,478.247,105.068,812.410
1099,0,0,0,478.400,104.965,812.311
1100,0,0,0,478.545,104.886,812.222
1101,0,0,0,478.640,104.841,812.122
1102,0,0,0,478.647,104.836,812.065
1103,0,0,0,478.651,104.862,811.984
1104,0,0,0,478.680,104.889,811.862
1105,0,0,0,478.707,104.837,811.736
1106,0,0,0,478.778,104.792,811.593
1107,0,0,0,478.800,104.727,811.511
1108,0,0,0,478.843,104.714,811.483
1109,0,0,0,478.822,104.703,811.494
1110,0,0,0,478.767,104.745,811.572
1111,0,0,0,478.708,104.803,811.653
1112,0,0,0,478.688,104.864,811.778
1113,0,0,0,478.694,104.897,811.919
1114,0,0,0,478.736,104.903,812.069
1115,0,0,0,478.741,104.943,812.283
1116,0,0,0,478.762,104.979,812.507
1117,0,0,0,478.749,105.055,812.843
1118,0,0,0,478.782,105.116,813.120
1119,0,0,0,478.793,105.202,813.430
1120,0,0,0,478.787,105.238,813.711
1121,0,0,0,478.673,105.299,813.988
1122,0,0,0,478.621,105.422,814.261
1123,0,0,0,478.467,105.576,814.595
1124,0,0,0,478.372,105.720,814.902
1125,0,0,0,478.307,105.839,815.249
1126,0,0,0,478.263,105.918,815.583
1127,0,0,0,478.284,105.963,815.821
1128,0,0,0,478.222,106.015,816.169
1129,0,0,0,478.150,106.088,816.495
1130,0,0,0,478.088,106.218,816.781
1131,0,0,0,478.001,106.361,817.146
1132,0,0,0,477.914,106.503,817.420
1133,0,0,0,477.788,106.603,817.686
1134,0,0,0,477.718,106.706,817.888
1135,0,0,0,477.574,106.785,818.067
1136,0,0,0,477.469,106.895,818.233
1137,0,0,0,477.286,107.003,818.420
1138,0,0,0,477.208,107.149,818.561
1139,0,0,0,477.088,107.229,818.708
1140,0,0,0,476.992,107.262,818.852
1141,0,0,0,476.902,107.295,818.988
1142,0,0,0,476.781,107.360,819.156
1143,0,0,0,476.624,107.461,819.329
1144,0,0,0,476.463,107.601,819.542
1145,0,0,0,476.342,107.712,819.748
1146,0,0,0,476.241,107.763,819.994
1147,0,0,0,476.216,107.803,820.173
1148,0,0,0,476.139,107.808,820.350
1149,0,0,0,476.017,107.845,820.582
1150,0,0,0,475.918,107.930,820.819
1151,0,0,0,475.844,107.981,821.108
1152,0,0,0,475.805,108.044,821.363
1153,0,0,0,475.718,108.037,821.608
1154,0,0,0,475.714,108.039,821.871
1155,0,0,0,475.699,108.024,822.088
1156,0,0,0,475.692,108.010,822.290
1157,0,0,0,475.696,108.030,822.557
1158,0,0,0,475.770,108.028,822.825
1159,0,0,0,475.753,108.007,823.216
1160,0,0,0,475.816,107.990,823.520
1161,0,0,0,475.933,107.941,823.835
1162,0,0,0,475.952,107.927,824.160
1163,0,0,0,475.959,107.950,824.451
1164,0,0,0,476.013,107.966,824.762
1165,0,0,0,476.016,107.930,825.059
1166,0,0,0,476.082,107.912,825.347
1167,0,0,0,476.132,107.859,825.650
1168,0,0,0,476.153,107.840,825.919
1169,0,0,0,476.101,107.867,826.189
1170,0,0,0,476.112,107.951,826.481
1171,0,0,0,476.029,108.011,826.783
1172,0,0,0,475.987,108.024,827.065
1173,0,0,0,476.038,108.043,827.317
1174,0,0,0,476.092,108.012,827.590
1175,0,0,0,476.136,107.977,827.831
1176,0,0,0,476.148,108.006,828.161
1177,0,0,0,476.213,108.047,828.449
1178,0,0,0,476.193,108.108,828.744
1179,0,0,0,476.197,108.151,828.980
1180,0,0,0,476.244,108.140,829.215
1181,0,0,0,476.272,108.163,829.465
1182,0,0,0,476.315,108.159,829.673
1183,0,0,0,476.353,108.157,829.921
1184,0,0,0,476.380,108.209,830.213
1185,0,0,0,476.394,108.269,830.518
1186,0,0,0,476.469,108.282,830.838
1187,0,0,0,476.529,108.234,831.172
1188,0,0,0,476.593,108.217,831.474
1189,0,0,0,476.653,108.208,831.856
1190,0,0,0,476.660,108.262,832.277
1191,0,0,0,476.743,108.316,832.660
1192,0,0,0,476.798,108.354,833.087
1193,0,0,0,476.859,108.373,833.495
1194,0,0,0,476.889,108.388,833.836
1195,0,0,0,476.928,108.388,834.173
1196,0,0,0,476.902,108.458,834.563
1197,0,0,0,476.912,108.499,834.937
1198,0,0,0,476.989,108.537,835.332
1199,0,0,0,477.068,108.505,835.711
1200,0,0,0,477.145,108.445,836.064
1201,0,0,0,477.166,108.430,836.445
1202,0,0,0,477.185,108.445,836.728
1203,0,0,0,477.096,108.511,837.098
1204,0,0,0,476.991,108.563,837.439
1205,0,0,0,476.926,108.545,837.693
1206,0,0,0,477.012,108.467,837.872
1207,0,0,0,477.069,108.371,838.069
1208,0,0,0,477.125,108.246,838.234
1209,0,0,0,477.070,108.146,838.426
1210,0,0,0,477.071,108.058,838.554
1211,0,0,0,477.011,107.942,838.596
1212,0,0,0,476.891,107.851,838.572
1213,0,0,0,476.763,107.733,838.383
1214,0,0,0,476.626,107.619,838.169
1215,0,0,0,476.481,107.498,837.980
1216,0,0,0,476.352,107.378,837.783
1217,0,0,0,476.214,107.213,837.565
1218,0,0,0,476.156,107.017,837.244
1219,0,0,0,476.005,106.765,836.875
1220,0,0,0,475.859,106.525,836.365
1221,0,0,0,475.594,106.281,835.768
1222,0,0,0,475.301,106.070,835.137
1223,0,0,0,474.995,105.918,834.434
1224,0,0,0,474.700,105.712,833.613
1225,0,0,0,474.418,105.463,832.681
1226,0,0,0,474.192,105.127,831.561
1227,0,0,0,473.984,104.697,830.243
1228,0,0,0,473.767,104.245,828.741
1229,0,0,0,473.489,103.791,827.071
1230,0,0,0,473.190,103.345,825.290
1231,0,0,0,472.826,102.916,823.286
1232,0,0,0,472.489,102.451,821.059
1233,0,0,0,472.179,101.919,818.650
1234,0,0,0,472.002,101.306,815.983
1235,0,0,0,471.800,100.567,813.053
1236,0,0,0,471.741,99.746,809.856
1237,0,0,0,471.752,98.906,806.369
1238,0,0,0,471.708,98.063,802.639
1239,0,0,0,471.741,97.240,798.581
1240,0,0,0,471.713,96.435,794.236
1241,0,0,0,471.839,95.653,789.468
1242,0,0,0,471.935,94.729,784.324
1243,0,0,0,472.144,93.631,778.664
1244,0,0,0,472.428,92.540,772.413
1245,0,0,0,472.751,91.417,765.584
1246,0,0,0,472.977,90.403,758.258
1247,0,0,0,473.168,89.536,750.446
1248,0,0,0,473.311,88.875,742.202
1249,0,0,0,473.511,88.255,733.428
1250,0,0,0,473.772,87.563,724.043
1251,0,0,0,474.165,86.940,714.022
1252,0,0,0,474.566,86.420,703.363
1253,0,0,0,475.063,86.082,692.158
1254,0,0,0,475.688,86.013,680.466
1255,0,0,0,476.326,86.084,668.302
1256,0,0,0,477.269,86.289,655.463
1257,0,0,0,478.334,86.643,642.011
1258,0,0,0,479.531,87.256,627.903
1259,0,0,0,480.930,88.183,613.064
1260,0,0,0,482.596,89.437,597.517
1261,0,0,0,484.330,91.046,581.426
1262,0,0,0,486.187,93.153,564.746
1263,0,0,0,488.104,95.752,547.574
1264,0,0,0,490.248,98.826,529.885
1265,0,0,0,492.631,102.278,511.810
1266,0,0,0,495.570,106.192,493.366
1267,0,0,0,498.905,110.404,474.642
1268,0,0,0,502.861,114.959,455.535
1269,0,0,0,507.101,119.844,436.365
1270,0,0,0,511.752,125.146,417.017
1271,0,0,0,516.615,130.914,397.761
1272,0,0,0,521.583,137.221,378.733
1273,0,0,0,526.730,144.112,359.952
1274,0,0,0,531.985,151.364,341.613
1275,0,0,0,537.787,158.946,323.406
1276,0,0,0,544.189,166.641,305.299
1277,0,0,0,551.172,174.489,287.560
1278,0,0,0,558.649,182.571,270.072
1279,0,0,0,566.246,191.079,253.092
1280,0,0,0,573.801,199.858,236.750
1281,0,0,0,581.140,209.076,220.979
1282,0,0,0,588.372,218.665,205.657
1283,0,0,0,595.676,228.565,190.360
1284,0,0,0,603.065,238.797,175.533
1285,0,0,0,610.673,249.172,160.966
1286,0,0,0,618.262,259.712,147.107
1287,0,0,0,625.744,270.210,134.175
1288,0,0,0,633.186,280.634,122.239
1289,0,0,0,640.445,290.630,111.350
1290,0,0,0,647.719,300.295,101.224
1291,0,0,0,654.836,309.549,91.964
1292,0,0,0,661.812,318.575,83.380
1293,0,0,0,668.676,327.377,75.379
1294,0,0,0,675.229,335.994,68.038
1295,0,0,0,681.435,344.315,61.282
1296,0,0,0,687.260,352.340,55.034
1297,0,0,0,692.534,359.989,49.362
1298,0,0,0,697.276,367.265,44.222
1299,0,0,0,701.707,374.121,39.491
1300,0,0,0,705.659,380.526,35.368
1301,0,0,0,709.401,386.406,31.642
1302,0,0,0,712.810,391.773,28.518
1303,0,0,0,715.974,396.538,25.927
1304,0,0,0,718.881,400.686,23.812
1305,0,0,0,721.791,404.426,21.757
1306,0,0,0,724.178,407.693,20.157
1307,0,0,0,726.102,410.667,18.784
1308,0,0,0,727.574,413.413,17.694
1309,0,0,0,728.789,416.087,16.620
1310,0,0,0,729.690,418.571,15.800
1311,0,0,0,730.405,420.837,15.062
1312,0,0,0,731.117,422.914,14.416
1313,0,0,0,731.671,424.672,14.067
1314,0,0,0,732.086,426.062,13.923
1315,0,0,0,732.554,427.190,13.917
1316,0,0,0,733.010,428.049,14.026
1317,0,0,0,733.250,428.607,14.443
1318,0,0,0,733.694,429.108,14.727
1319,0,0,0,734.011,429.328,15.292
1320,0,0,0,734.496,429.488,15.721
1321,0,0,0,734.940,429.503,16.258
1322,0,0,0,735.428,429.522,16.669
1323,0,0,0,735.813,429.570,17.051
1324,0,0,0,735.979,429.636,17.465
1325,0,0,0,736.084,429.799,17.750
1326,0,0,0,736.159,430.022,17.928
1327,0,0,0,736.222,430.207,18.080
1328,0,0,0,736.346,430.409,18.115
1329,0,0,0,736.438,430.622,18.170
1330,0,0,0,736.507,430.781,18.131
1331,0,0,0,736.624,430.983,18.077
1332,0,0,0,736.528,431.089,18.070
1333,0,0,0,736.477,431.149,18.062
1334,0,0,0,736.327,431.237,18.041
1335,0,0,0,735.927,431.264,18.203
1336,0,0,0,735.516,431.265,18.245
1337,0,0,0,735.146,431.269,18.335
1338,0,0,0,734.907,431.183,18.371
1339,0,0,0,734.544,430.996,18.541
1340,0,0,0,734.166,430.706,18.803
1341,0,0,0,733.912,430.377,18.972
1342,0,0,0,733.610,430.017,19.235
1343,0,0,0,733.177,429.607,19.563
1344,0,0,0,732.763,429.212,19.973
1345,0,0,0,732.349,428.804,20.303
1346,0,0,0,731.876,428.428,20.622
1347,0,0,0,731.340,428.047,20.993
1348,0,0,0,730.752,427.738,21.337
1349,0,0,0,730.243,427.397,21.620
1350,0,0,0,729.645,426.972,21.975
1351,0,0,0,729.123,426.567,22.317
1352,0,0,0,728.743,426.137,22.546
1353,0,0,0,728.323,425.614,22.859
1354,0,0,0,727.984,425.022,23.187
1355,0,0,0,727.559,424.385,23.671
1356,0,0,0,727.254,423.797,23.959
1357,0,0,0,726.895,423.255,24.260
1358,0,0,0,726.436,422.780,24.617
1359,0,0,0,725.923,422.389,24.881
1360,0,0,0,725.450,422.103,25.071
1361,0,0,0,725.056,421.875,25.214
1362,0,0,0,724.598,421.704,25.436
1363,0,0,0,724.210,421.566,25.609
1364,0,0,0,723.888,421.434,25.730
1365,0,0,0,723.624,421.358,25.803
1366,0,0,0,723.379,421.372,25.820
1367,0,0,0,723.018,421.376,25.927
1368,0,0,0,722.651,421.455,26.098
1369,0,0,0,722.352,421.604,26.143
1370,0,0,0,722.196,421.830,26.097
1371,0,0,0,722.041,422.108,26.070
1372,0,0,0,721.902,422.316,26.043
1373,0,0,0,721.845,422.532,26.039
1374,0,0,0,721.784,422.704,26.019
1375,0,0,0,721.683,422.777,26.077
1376,0,0,0,721.775,422.919,26.028
1377,0,0,0,721.846,423.047,25.997
1378,0,0,0,721.913,423.186,25.902
1379,0,0,0,721.914,423.365,25.858
1380,0,0,0,721.929,423.543,25.846
1381,0,0,0,721.985,423.803,25.770
1382,0,0,0,722.035,424.112,25.698
1383,0,0,0,722.149,424.479,25.549
1384,0,0,0,722.205,424.854,25.475
1385,0,0,0,722.456,425.373,25.199
1386,0,0,0,722.520,425.824,25.074
1387,0,0,0,722.649,426.307,24.885
1388,0,0,0,722.717,426.829,24.690
1389,0,0,0,722.823,427.367,24.479
1390,0,0,0,722.881,427.857,24.306
1391,0,0,0,722.891,428.373,24.105
1392,0,0,0,723.041,428.980,23.895
1393,0,0,0,723.091,429.507,23.674
1394,0,0,0,723.208,430.105,23.427
1395,0,0,0,723.247,430.618,23.240
1396,0,0,0,723.306,431.211,23.060
1397,0,0,0,723.342,431.826,22.823
1398,0,0,0,723.401,432.400,22.660
1399,0,0,0,723.443,432.985,22.475
1400,0,0,0,723.516,433.592,22.261
1401,0,0,0,723.545,434.119,22.138
1402,0,0,0,723.681,434.777,21.843
1403,0,0,0,723.746,435.295,21.672
1404,0,0,0,723.746,435.768,21.586
1405,0,0,0,723.945,436.330,21.318
1406,0,0,0,723.895,436.888,21.184
1407,0,0,0,723.946,437.534,20.963
1408,0,0,0,723.904,438.119,20.759
1409,0,0,0,723.996,438.723,20.543
1410,0,0,0,724.002,439.267,20.358
1411,0,0,0,724.108,439.791,20.089
1412,0,0,0,724.189,440.324,19.854
1413,0,0,0,724.237,440.778,19.625
1414,0,0,0,724.274,441.230,19.409
1415,0,0,0,724.237,441.605,19.301
1416,0,0,0,724.287,441.963,19.126
1417,0,0,0,724.338,442.354,18.914
1418,0,0,0,724.425,442.721,18.747
1419,0,0,0,724.421,443.016,18.661
1420,0,0,0,724.503,443.358,18.462
1421,0,0,0,724.636,443.705,18.326
1422,0,0,0,724.781,444.156,18.097
1423,0,0,0,724.848,444.510,17.949
1424,0,0,0,724.943,444.917,17.836
1425,0,0,0,725.020,445.241,17.711
1426,0,0,0,725.188,445.623,17.497
1427,0,0,0,725.390,445.926,17.305
1428,0,0,0,725.479,446.192,17.188
1429,0,0,0,725.600,446.448,17.051
1430,0,0,0,725.748,446.733,16.918
1431,0,0,0,725.811,446.906,16.842
1432,0,0,0,725.868,447.130,16.770
1433,0,0,0,725.940,447.317,16.689
1434,0,0,0,725.992,447.528,16.594
1435,0,0,0,726.034,447.712,16.524
1436,0,0,0,726.064,447.896,16.468
1437,0,0,0,726.044,448.035,16.456
1438,0,0,0,726.016,448.200,16.415
1439,0,0,0,726.012,448.380,16.327
1440,0,0,0,725.959,448.620,16.275
1441,0,0,0,725.979,448.905,16.154
1442,0,0,0,725.928,449.158,16.081
1443,0,0,0,725.908,449.414,15.997
1444,0,0,0,725.867,449.694,15.899
1445,0,0,0,725.846,449.949,15.815
1446,0,0,0,725.822,450.179,15.773
1447,0,0,0,725.806,450.345,15.792
1448,0,0,0,725.870,450.583,15.743
1449,0,0,0,725.867,450.737,15.740
1450,0,0,0,725.930,450.975,15.692
1451,0,0,0,725.959,451.170,15.717
1452,0,0,0,725.980,451.405,15.620
1453,0,0,0,726.008,451.601,15.573
1454,0,0,0,726.044,451.862,15.494
1455,0,0,0,725.991,452.083,15.459
1456,0,0,0,726.014,452.285,15.371
1457,0,0,0,726.010,452.491,15.343
1458,0,0,0,726.085,452.769,15.247
1459,0,0,0,726.169,453.049,15.094
1460,0,0,0,726.262,453.316,15.020
1461,0,0,0,726.317,453.580,14.943
1462,0,0,0,726.346,453.840,14.923
1463,0,0,0,726.363,454.036,14.888
1464,0,0,0,726.397,454.220,14.803
1465,0,0,0,726.415,454.344,14.811
1466,0,0,0,726.479,454.532,14.714
1467,0,0,0,726.548,454.694,14.674
1468,0,0,0,726.632,454.805,14.544
1469,0,0,0,726.651,454.942,14.531
1470,0,0,0,726.753,455.043,14.423
1471,0,0,0,726.758,455.154,14.392
1472,0,0,0,726.783,455.272,14.338
1473,0,0,0,726.833,455.426,14.292
1474,0,0,0,726.945,455.540,14.179
1475,0,0,0,726.994,455.596,14.217
1476,0,0,0,727.164,455.703,14.102
1477,0,0,0,727.288,455.767,14.074
1478,0,0,0,727.397,455.803,14.028
1479,0,0,0,727.486,455.870,14.044
1480,0,0,0,727.590,455.951,13.925
1481,0,0,0,727.585,455.983,13.945
1482,0,0,0,727.725,456.068,13.858
1483,0,0,0,727.772,456.085,13.856
1484,0,0,0,727.949,456.154,13.789
1485,0,0,0,728.019,456.148,13.773
1486,0,0,0,728.147,456.212,13.716
1487,0,0,0,728.204,456.282,13.676
1488,0,0,0,728.367,456.389,13.545
1489,0,0,0,728.367,456.454,13.498
1490,0,0,0,728.430,456.538,13.408
1491,0,0,0,728.562,456.616,13.301
1492,0,0,0,728.641,456.675,13.254
1493,0,0,0,728.714,456.721,13.257
1494,0,0,0,728.767,456.817,13.232
1495,0,0,0,728.869,456.897,13.215
1496,0,0,0,728.892,457.016,13.190
1497,0,0,0,728.935,457.078,13.188
1498,0,0,0,728.960,457.183,13.154
1499,0,0,0,728.967,457.262,13.205
1500,0,0,0,729.021,457.325,13.189
1501,0,0,0,729.039,457.423,13.210
1502,0,0,0,729.090,457.538,13.197
1503,0,0,0,729.107,457.662,13.205
1504,0,0,0,729.080,457.775,13.190
1505,0,0,0,729.127,457.948,13.157
1506,0,0,0,729.068,458.097,13.222
1507,0,0,0,729.069,458.252,13.190
1508,0,0,0,729.033,458.378,13.240
1509,0,0,0,729.068,458.484,13.194
1510,0,0,0,729.038,458.571,13.293
1511,0,0,0,729.071,458.743,13.229
1512,0,0,0,729.092,458.938,13.239
1513,0,0,0,729.089,459.158,13.190
1514,0,0,0,729.082,459.430,13.144
1515,0,0,0,729.154,459.774,12.958
1516,0,0,0,729.179,460.035,12.893
1517,0,0,0,729.190,460.309,12.849
1518,0,0,0,729.216,460.583,12.763
1519,0,0,0,729.316,460.813,12.665
1520,0,0,0,729.448,461.071,12.588
1521,0,0,0,729.528,461.260,12.522
1522,0,0,0,729.614,461.437,12.492
1523,0,0,0,729.763,461.763,12.325
1524,0,0,0,729.740,462.059,12.236
1525,0,0,0,729.817,462.352,12.119
1526,0,0,0,729.820,462.690,12.014
1527,0,0,0,729.836,463.056,11.882
1528,0,0,0,729.912,463.439,11.706
1529,0,0,0,729.959,463.729,11.601
1530,0,0,0,730.061,464.038,11.509
1531,0,0,0,730.225,464.223,11.384
1532,0,0,0,730.458,464.389,11.191
1533,0,0,0,730.510,464.329,11.125
1534,0,0,0,730.336,464.080,11.133
1535,0,0,0,729.711,463.540,11.379
1536,0,0,0,728.789,462.726,11.702
1537,0,0,0,727.576,461.506,12.313
1538,0,0,0,726.100,459.783,13.030
1539,0,0,0,724.230,457.400,14.101
1540,0,0,0,721.892,454.377,15.479
1541,0,0,0,719.020,450.569,17.328
1542,0,0,0,715.586,445.886,19.647
1543,0,0,0,711.565,440.394,22.590
1544,0,0,0,707.104,433.999,26.224
1545,0,0,0,702.157,426.795,30.542
1546,0,0,0,696.814,418.722,35.591
1547,0,0,0,691.232,409.760,41.418
1548,0,0,0,685.585,400.144,47.822
1549,0,0,0,679.620,389.829,54.981
1550,0,0,0,673.466,379.008,62.827
1551,0,0,0,667.023,367.734,71.440
1552,0,0,0,660.321,356.109,80.780
1553,0,0,0,653.370,344.284,90.931
1554,0,0,0,646.355,332.259,101.843
1555,0,0,0,639.291,319.982,113.471
1556,0,0,0,632.307,307.473,125.925
1557,0,0,0,625.355,294.866,139.086
1558,0,0,0,618.292,282.094,153.167
1559,0,0,0,611.070,269.292,168.200
1560,0,0,0,603.902,256.496,184.062
1561,0,0,0,596.858,243.796,200.809
1562,0,0,0,589.898,231.231,218.493
1563,0,0,0,583.155,218.987,236.898
1564,0,0,0,576.592,207.027,256.048
1565,0,0,0,570.388,195.480,275.896
1566,0,0,0,564.496,184.351,296.277
1567,0,0,0,558.835,173.798,317.338
1568,0,0,0,553.688,163.964,338.653
1569,0,0,0,548.832,154.845,360.237
1570,0,0,0,544.366,146.425,381.890
1571,0,0,0,540.261,138.687,403.626
1572,0,0,0,536.642,131.567,425.345
1573,0,0,0,533.488,125.045,446.896
1574,0,0,0,530.796,119.084,468.262
1575,0,0,0,528.511,113.710,489.328
1576,0,0,0,526.622,108.913,510.076
1577,0,0,0,524.999,104.675,530.485
1578,0,0,0,523.544,101.035,550.600
1579,0,0,0,522.368,97.945,570.214
1580,0,0,0,521.471,95.444,589.304
1581,0,0,0,520.672,93.435,607.895
1582,0,0,0,520.006,91.900,625.891
1583,0,0,0,519.627,90.751,643.133
1584,0,0,0,519.355,89.954,659.576
1585,0,0,0,519.248,89.373,675.201
1586,0,0,0,519.155,89.058,690.012
1587,0,0,0,519.082,89.020,703.841
1588,0,0,0,518.920,89.204,716.808
1589,0,0,0,518.770,89.597,728.866
1590,0,0,0,518.544,90.072,740.050
1591,0,0,0,518.413,90.643,750.431
1592,0,0,0,518.371,91.210,759.992
1593,0,0,0,518.426,91.794,768.754
1594,0,0,0,518.526,92.277,776.767
1595,0,0,0,518.696,92.743,784.032
1596,0,0,0,518.864,93.100,790.538
1597,0,0,0,518.894,93.434,796.313
1598,0,0,0,518.858,93.738,801.366
1599,0,0,0,518.596,94.036,805.819
1600,0,0,0,518.346,94.305,809.609
1601,0,0,0,517.987,94.498,812.928
1602,0,0,0,517.670,94.615,815.737
1603,0,0,0,517.303,94.650,818.252
1604,0,0,0,516.901,94.727,820.427
1605,0,0,0,516.490,94.881,822.323
1606,0,0,0,516.035,95.119,824.043
1607,0,0,0,515.637,95.334,825.556
1608,0,0,0,515.382,95.424,826.877
1609,0,0,0,515.296,95.430,827.965
1610,0,0,0,515.360,95.427,828.924
1611,0,0,0,515.387,95.473,829.826
1612,0,0,0,515.515,95.568,830.664
1613,0,0,0,515.613,95.718,831.429
1614,0,0,0,515.700,95.836,832.143
1615,0,0,0,515.873,95.918,832.650
1616,0,0,0,516.039,95.956,832.986
1617,0,0,0,516.179,95.942,833.195
1618,0,0,0,516.313,96.013,833.267
1619,0,0,0,516.413,96.049,833.305
1620,0,0,0,516.513,96.094,833.259
1621,0,0,0,516.569,96.134,833.088
1622,0,0,0,516.609,96.057,832.799
1623,0,0,0,516.608,95.950,832.358
1624,0,0,0,516.559,95.827,831.852
1625,0,0,0,516.457,95.725,831.297
1626,0,0,0,516.194,95.667,830.688
1627,0,0,0,515.842,95.705,830.149
1628,0,0,0,515.408,95.803,829.588
1629,0,0,0,514.964,95.911,829.041
1630,0,0,0,514.528,95.952,828.421
1631,0,0,0,514.088,96.014,827.771
1632,0,0,0,513.674,96.114,827.120
1633,0,0,0,513.240,96.221,826.475
1634,0,0,0,512.792,96.323,825.887
1635,0,0,0,512.425,96.440,825.325
1636,0,0,0,512.051,96.536,824.809
1637,0,0,0,511.753,96.666,824.264
1638,0,0,0,511.382,96.793,823.789
1639,0,0,0,511.075,96.924,823.268
1640,0,0,0,510.787,96.967,822.761
1641,0,0,0,510.583,96.978,822.226
1642,0,0,0,510.328,96.956,821.697
1643,0,0,0,510.013,97.004,821.187
1644,0,0,0,509.687,97.062,820.649
1645,0,0,0,509.273,97.156,820.163
1646,0,0,0,508.905,97.254,819.654
1647,0,0,0,508.572,97.302,819.101
1648,0,0,0,508.245,97.330,818.512
1649,0,0,0,508.002,97.337,817.925
1650,0,0,0,507.808,97.347,817.365
1651,0,0,0,507.600,97.338,816.883
1652,0,0,0,507.376,97.347,816.437
1653,0,0,0,507.132,97.369,815.986
1654,0,0,0,506.888,97.384,815.545
1655,0,0,0,506.623,97.401,815.070
1656,0,0,0,506.387,97.386,814.579
1657,0,0,0,506.236,97.363,814.045
1658,0,0,0,506.017,97.342,813.631
1659,0,0,0,505.892,97.320,813.223
1660,0,0,0,505.776,97.287,812.776
1661,0,0,0,505.670,97.255,812.321
1662,0,0,0,505.629,97.181,811.781
1663,0,0,0,505.640,97.061,811.213
1664,0,0,0,505.662,96.949,810.619
1665,0,0,0,505.733,96.802,810.029
1666,0,0,0,505.812,96.650,809.539
1667,0,0,0,505.966,96.451,808.975
1668,0,0,0,506.061,96.195,808.438
1669,0,0,0,506.215,95.934,807.922
1670,0,0,0,506.325,95.691,807.407
1671,0,0,0,506.374,95.496,806.952
1672,0,0,0,506.375,95.357,806.537
1673,0,0,0,506.327,95.216,806.104
1674,0,0,0,506.274,95.034,805.681
1675,0,0,0,506.243,94.788,805.267
1676,0,0,0,506.208,94.570,804.888
1677,0,0,0,506.116,94.369,804.584
1678,0,0,0,505.999,94.227,804.389
1679,0,0,0,505.890,94.128,804.192
1680,0,0,0,505.801,94.040,804.068
1681,0,0,0,505.752,93.897,803.919
1682,0,0,0,505.745,93.711,803.783
1683,0,0,0,505.774,93.490,803.600
1684,0,0,0,505.811,93.289,803.496
1685,0,0,0,505.885,93.172,803.481
1686,0,0,0,505.922,93.053,803.505
1687,0,0,0,505.952,92.886,803.492
1688,0,0,0,505.980,92.739,803.507
1689,0,0,0,506.033,92.607,803.470
1690,0,0,0,506.046,92.493,803.500
1691,0,0,0,506.101,92.433,803.569
1692,0,0,0,506.166,92.369,803.665
1693,0,0,0,506.269,92.252,803.768
1694,0,0,0,506.365,92.135,803.879
1695,0,0,0,506.505,92.003,803.946
1696,0,0,0,506.580,91.883,804.057
1697,0,0,0,506.715,91.785,804.132
1698,0,0,0,506.780,91.701,804.283
1699,0,0,0,506.884,91.640,804.430
1700,0,0,0,506.962,91.568,804.511
1701,0,0,0,507.025,91.471,804.616
1702,0,0,0,507.042,91.353,804.681
1703,0,0,0,507.066,91.254,804.750
1704,0,0,0,507.021,91.189,804.839
1705,0,0,0,507.020,91.158,804.948
1706,0,0,0,506.946,91.164,805.101
1707,0,0,0,506.880,91.154,805.183
1708,0,0,0,506.882,91.119,805.251
1709,0,0,0,506.863,91.087,805.300
1710,0,0,0,506.842,91.030,805.347
1711,0,0,0,506.863,90.977,805.379
1712,0,0,0,506.924,90.961,805.453
1713,0,0,0,506.952,90.900,805.554
1714,0,0,0,506.984,90.855,805.634
1715,0,0,0,506.977,90.860,805.683
1716,0,0,0,506.971,90.860,805.699
1717,0,0,0,506.932,90.857,805.648
1718,0,0,0,506.890,90.852,805.588
1719,0,0,0,506.883,90.813,805.481
1720,0,0,0,506.896,90.769,805.368
1721,0,0,0,506.899,90.719,805.298
1722,0,0,0,506.891,90.696,805.253
1723,0,0,0,506.872,90.679,805.207
1724,0,0,0,506.838,90.649,805.137
1725,0,0,0,506.792,90.632,805.047
1726,0,0,0,506.759,90.577,804.910
1727,0,0,0,506.714,90.537,804.767
1728,0,0,0,506.628,90.509,804.636
1729,0,0,0,506.580,90.478,804.500
1730,0,0,0,506.529,90.441,804.390
1731,0,0,0,506.489,90.421,804.267
1732,0,0,0,506.424,90.389,804.222
1733,0,0,0,506.424,90.389,804.155
1734,0,0,0,506.333,90.383,804.144
1735,0,0,0,506.364,90.380,804.079
1736,0,0,0,506.348,90.359,804.067
1737,0,0,0,506.405,90.292,803.996
1738,0,0,0,506.475,90.254,803.935
1739,0,0,0,506.452,90.231,803.914
1740,0,0,0,506.419,90.250,803.908
1741,0,0,0,506.305,90.334,803.980
1742,0,0,0,506.212,90.380,803.996
1743,0,0,0,506.134,90.454,804.006
1744,0,0,0,506.051,90.449,804.002
1745,0,0,0,505.986,90.454,803.989
1746,0,0,0,505.893,90.463,803.973
1747,0,0,0,505.821,90.520,803.979
1748,0,0,0,505.692,90.591,804.037
1749,0,0,0,505.541,90.686,804.113
1750,0,0,0,505.436,90.754,804.190
1751,0,0,0,505.322,90.799,804.222
1752,0,0,0,505.250,90.846,804.289
1753,0,0,0,505.175,90.894,804.373
1754,0,0,0,505.087,90.916,804.462
1755,0,0,0,505.028,90.945,804.577
1756,0,0,0,505.005,90.994,804.671
1757,0,0,0,504.923,91.047,804.736
1758,0,0,0,504.838,91.102,804.818
1759,0,0,0,504.727,91.135,804.895
1760,0,0,0,504.668,91.184,804.954
1761,0,0,0,504.601,91.195,804.997
1762,0,0,0,504.543,91.199,805.043
1763,0,0,0,504.409,91.200,805.169
1764,0,0,0,504.281,91.270,805.369
1765,0,0,0,504.231,91.367,805.550
1766,0,0,0,504.088,91.415,805.813
1767,0,0,0,503.968,91.450,806.064
1768,0,0,0,503.884,91.506,806.312
1769,0,0,0,503.771,91.533,806.566
1770,0,0,0,503.664,91.654,806.895
1771,0,0,0,503.510,91.769,807.307
1772,0,0,0,503.510,91.880,807.703
1773,0,0,0,503.429,91.959,808.145
1774,0,0,0,503.375,91.988,808.484
1775,0,0,0,503.425,92.033,808.741
1776,0,0,0,503.371,92.064,809.030
1777,0,0,0,503.319,92.141,809.265
1778,0,0,0,503.208,92.243,809.574
1779,0,0,0,503.127,92.388,809.856
1780,0,0,0,503.031,92.520,810.116
1781,0,0,0,502.909,92.626,810.332
1782,0,0,0,502.855,92.670,810.500
1783,0,0,0,502.805,92.673,810.680
1784,0,0,0,502.803,92.740,810.820
1785,0,0,0,502.704,92.780,811.021
1786,0,0,0,502.645,92.841,811.193
1787,0,0,0,502.594,92.886,811.370
1788,0,0,0,502.564,92.927,811.557
1789,0,0,0,502.555,92.947,811.676
1790,0,0,0,502.535,92.980,811.849
1791,0,0,0,502.544,93.044,812.032
1792,0,0,0,502.614,93.085,812.233
1793,0,0,0,502.660,93.083,812.444
1794,0,0,0,502.789,93.036,812.604
1795,0,0,0,502.889,92.972,812.726
1796,0,0,0,502.961,92.898,812.865
1797,0,0,0,503.009,92.838,812.949
1798,0,0,0,503.053,92.812,813.108
1799,0,0,0,503.103,92.789,813.208
1800,0,0,0,503.149,92.740,813.314
1801,0,0,0,503.151,92.660,813.435
1802,0,0,0,503.217,92.603,813.586
1803,0,0,0,503.278,92.523,813.776
1804,0,0,0,503.371,92.489,814.022
1805,0,0,0,503.416,92.457,814.281
1806,0,0,0,503.513,92.394,814.560
1807,0,0,0,503.618,92.284,814.793
1808,0,0,0,503.747,92.186,815.025
1809,0,0,0,503.819,92.153,815.311
1810,0,0,0,503.804,92.141,815.677
1811,0,0,0,503.804,92.151,816.080
1812,0,0,0,503.812,92.172,816.481
1813,0,0,0,503.829,92.180,816.911
1814,0,0,0,503.820,92.155,817.314
1815,0,0,0,503.950,92.145,817.721
1816,0,0,0,504.009,92.099,818.215
1817,0,0,0,504.060,92.096,818.724
1818,0,0,0,504.082,92.061,819.213
1819,0,0,0,504.073,92.017,819.670
1820,0,0,0,503.985,91.957,820.085
1821,0,0,0,503.911,91.905,820.416
1822,0,0,0,503.812,91.884,820.746
1823,0,0,0,503.661,91.855,821.009
1824,0,0,0,503.559,91.813,821.237
1825,0,0,0,503.424,91.744,821.412
1826,0,0,0,503.315,91.656,821.544
1827,0,0,0,503.125,91.544,821.636
1828,0,0,0,502.994,91.458,821.593
1829,0,0,0,502.799,91.361,821.451
1830,0,0,0,502.660,91.275,821.185
1831,0,0,0,502.490,91.151,820.770
1832,0,0,0,502.348,90.979,820.113
1833,0,0,0,502.168,90.755,819.269
1834,0,0,0,501.996,90.494,818.087
1835,0,0,0,501.795,90.188,816.617
1836,0,0,0,501.556,89.863,814.808
1837,0,0,0,501.219,89.543,812.651
1838,0,0,0,500.907,89.258,810.093
1839,0,0,0,500.584,88.860,807.077
1840,0,0,0,500.318,88.337,803.607
1841,0,0,0,500.007,87.736,799.594
1842,0,0,0,499.705,87.100,795.094
1843,0,0,0,499.405,86.458,790.094
1844,0,0,0,499.239,85.845,784.553
1845,0,0,0,499.023,85.131,778.557
1846,0,0,0,498.886,84.417,771.926
1847,0,0,0,498.629,83.705,764.703
1848,0,0,0,498.328,83.037,756.792
1849,0,0,0,498.019,82.419,748.086
1850,0,0,0,497.695,81.837,738.707
1851,0,0,0,497.482,81.338,728.632
1852,0,0,0,497.518,80.890,717.756
1853,0,0,0,497.871,80.477,706.122
1854,0,0,0,498.468,80.053,693.730
1855,0,0,0,499.422,79.678,680.401
1856,0,0,0,500.372,79.489,666.345
1857,0,0,0,501.462,79.613,651.494
1858,0,0,0,502.565,80.093,635.937
1859,0,0,0,503.746,80.848,619.603
1860,0,0,0,505.201,81.855,602.567
1861,0,0,0,506.927,83.154,584.897
1862,0,0,0,508.905,84.839,566.814
1863,0,0,0,511.108,86.935,548.421
1864,0,0,0,513.537,89.464,529.742
1865,0,0,0,516.161,92.455,510.929
1866,0,0,0,518.924,95.885,491.914
1867,0,0,0,521.901,99.877,472.657
1868,0,0,0,524.984,104.469,453.261
1869,0,0,0,528.190,109.664,433.995
1870,0,0,0,531.651,115.386,414.839
1871,0,0,0,535.378,121.461,395.852
1872,0,0,0,539.447,127.789,377.002
1873,0,0,0,543.779,134.376,358.353
1874,0,0,0,548.288,141.335,339.922
1875,0,0,0,552.760,148.761,321.933
1876,0,0,0,557.299,156.631,304.493
1877,0,0,0,561.771,164.798,287.697
1878,0,0,0,566.381,173.079,271.692
1879,0,0,0,571.233,181.299,256.346
1880,0,0,0,576.266,189.472,241.714
1881,0,0,0,581.264,197.527,228.002
1882,0,0,0,586.370,205.556,214.989
1883,0,0,0,591.373,213.421,202.782
1884,0,0,0,596.579,221.083,191.145
1885,0,0,0,602.002,228.541,180.003
1886,0,0,0,607.324,235.866,169.391
1887,0,0,0,612.356,243.047,159.581
1888,0,0,0,617.048,250.142,150.507
1889,0,0,0,621.579,257.062,142.036
1890,0,0,0,625.952,263.882,134.213
1891,0,0,0,630.361,270.535,126.755
1892,0,0,0,634.878,276.948,119.684
1893,0,0,0,639.286,283.152,113.111
1894,0,0,0,643.677,289.136,106.887
1895,0,0,0,647.735,294.827,101.259
1896,0,0,0,651.519,300.346,96.076
1897,0,0,0,655.100,305.612,91.277
1898,0,0,0,658.542,310.746,86.744
1899,0,0,0,661.991,315.715,82.454
1900,0,0,0,665.411,320.736,78.271
1901,0,0,0,668.550,325.687,74.340
1902,0,0,0,671.390,330.616,70.747
1903,0,0,0,673.977,335.500,67.316
1904,0,0,0,676.449,340.281,64.061
1905,0,0,0,678.611,344.793,61.211
1906,0,0,0,680.874,349.195,58.342
1907,0,0,0,682.949,353.372,55.731
1908,0,0,0,685.032,357.416,53.258
1909,0,0,0,687.011,361.337,50.917
1910,0,0,0,688.783,365.003,48.948
1911,0,0,0,690.582,368.509,47.104
1912,0,0,0,692.363,371.763,45.496
1913,0,0,0,694.197,374.780,43.956
1914,0,0,0,696.062,377.571,42.532
1915,0,0,0,697.919,380.202,41.144
1916,0,0,0,699.717,382.795,39.883
1917,0,0,0,701.264,385.326,38.665
1918,0,0,0,702.698,387.913,37.536
1919,0,0,0,704.134,390.527,36.323
1920,0,0,0,705.411,393.053,35.191
1921,0,0,0,706.602,395.399,34.181
1922,0,0,0,707.902,397.657,33.069
1923,0,0,0,709.075,399.830,32.100
1924,0,0,0,710.192,401.875,31.187
1925,0,0,0,711.188,403.796,30.347
1926,0,0,0,712.179,405.630,29.522
1927,0,0,0,713.015,407.262,28.847
1928,0,0,0,714.018,408.836,28.109
1929,0,0,0,714.817,410.227,27.491
1930,0,0,0,715.572,411.437,26.970
1931,0,0,0,716.336,412.511,26.475
1932,0,0,0,716.846,413.445,26.158
1933,0,0,0,717.355,414.242,25.880
1934,0,0,0,718.000,414.925,25.532
1935,0,0,0,718.420,415.434,25.383
1936,0,0,0,718.888,415.834,25.222
1937,0,0,0,719.304,416.052,25.143
1938,0,0,0,719.638,416.237,25.127
1939,0,0,0,719.850,416.360,25.211
1940,0,0,0,719.901,416.454,25.360
1941,0,0,0,719.973,416.563,25.563
1942,0,0,0,720.002,416.630,25.751
1943,0,0,0,720.104,416.716,25.882
1944,0,0,0,720.141,416.784,26.085
1945,0,0,0,720.221,416.818,26.195
1946,0,0,0,720.238,416.769,26.323
1947,0,0,0,720.248,416.593,26.525
1948,0,0,0,720.257,416.430,26.636
1949,0,0,0,720.169,416.206,26.791
1950,0,0,0,719.907,415.954,27.052
1951,0,0,0,719.556,415.743,27.367
1952,0,0,0,719.282,415.540,27.617
1953,0,0,0,719.060,415.253,27.886
1954,0,0,0,718.939,414.926,28.087
1955,0,0,0,718.841,414.538,28.350
1956,0,0,0,718.870,414.137,28.622
1957,0,0,0,718.942,413.664,28.906
1958,0,0,0,719.071,413.210,29.103
1959,0,0,0,719.165,412.777,29.328
1960,0,0,0,719.216,412.354,29.513
1961,0,0,0,719.137,412.031,29.660
1962,0,0,0,719.046,411.795,29.864
1963,0,0,0,718.928,411.683,29.888
1964,0,0,0,718.782,411.568,29.968
1965,0,0,0,718.735,411.513,30.003
1966,0,0,0,718.608,411.463,30.111
1967,0,0,0,718.717,411.523,29.980
1968,0,0,0,718.635,411.528,30.010
1969,0,0,0,718.534,411.644,29.969
1970,0,0,0,718.154,411.759,30.005
1971,0,0,0,717.840,412.056,29.846
1972,0,0,0,717.390,412.390,29.751
1973,0,0,0,716.963,412.727,29.702
1974,0,0,0,716.490,413.059,29.706
1975,0,0,0,716.200,413.422,29.619
1976,0,0,0,716.012,413.732,29.529
1977,0,0,0,715.903,413.949,29.495
1978,0,0,0,715.838,414.081,29.464
1979,0,0,0,715.759,414.074,29.558
1980,0,0,0,715.836,414.094,29.545
1981,0,0,0,715.790,414.052,29.631
1982,0,0,0,715.744,413.984,29.658
1983,0,0,0,715.726,413.982,29.656
1984,0,0,0,715.729,414.071,29.642
1985,0,0,0,715.659,414.127,29.634
1986,0,0,0,715.616,414.287,29.636
1987,0,0,0,715.703,414.511,29.482
1988,0,0,0,715.704,414.700,29.418
1989,0,0,0,715.767,414.934,29.298
1990,0,0,0,715.820,415.179,29.171
1991,0,0,0,715.884,415.476,29.005
1992,0,0,0,715.948,415.811,28.879
1993,0,0,0,715.941,416.076,28.763
1994,0,0,0,716.012,416.374,28.613
1995,0,0,0,716.098,416.673,28.493
1996,0,0,0,716.165,416.907,28.416
1997,0,0,0,716.325,417.163,28.283
1998,0,0,0,716.420,417.426,28.183
1999,0,0,0,716.531,417.652,28.073
2000,0,0,0,716.571,417.909,27.967
2001,0,0,0,716.563,418.174,27.923
2002,0,0,0,716.590,418.506,27.794
2003,0,0,0,716.564,418.770,27.748
2004,0,0,0,716.542,419.034,27.674
2005,0,0,0,716.561,419.327,27.562
2006,0,0,0,716.571,419.645,27.494
2007,0,0,0,716.550,419.896,27.412
2008,0,0,0,716.587,420.179,27.322
2009,0,0,0,716.527,420.350,27.303
2010,0,0,0,716.555,420.607,27.210
2011,0,0,0,716.505,420.767,27.197
2012,0,0,0,716.527,420.946,27.127
2013,0,0,0,716.449,421.091,27.118
2014,0,0,0,716.404,421.239,27.141
2015,0,0,0,716.357,421.361,27.133
2016,0,0,0,716.365,421.514,27.117
2017,0,0,0,716.293,421.609,27.176
2018,0,0,0,716.193,421.675,27.232
2019,0,0,0,716.140,421.784,27.272
2020,0,0,0,716.076,421.892,27.327
2021,0,0,0,716.006,421.962,27.370
2022,0,0,0,715.952,422.096,27.399
2023,0,0,0,715.919,422.182,27.453
2024,0,0,0,715.886,422.305,27.403
2025,0,0,0,715.869,422.431,27.383
2026,0,0,0,715.779,422.549,27.400
2027,0,0,0,715.750,422.705,27.384
2028,0,0,0,715.656,422.778,27.459
2029,0,0,0,715.665,422.931,27.371
2030,0,0,0,715.666,423.096,27.319
2031,0,0,0,715.667,423.211,27.321
2032,0,0,0,715.645,423.335,27.330
2033,0,0,0,715.658,423.464,27.298
2034,0,0,0,715.678,423.656,27.236
2035,0,0,0,715.670,423.770,27.222
2036,0,0,0,715.751,423.975,27.140
2037,0,0,0,715.742,424.044,27.156
2038,0,0,0,715.793,424.150,27.140
2039,0,0,0,715.895,424.249,27.106
2040,0,0,0,715.942,424.318,27.079
2041,0,0,0,715.978,424.423,27.104
2042,0,0,0,715.973,424.543,27.066
2043,0,0,0,715.964,424.663,27.058
2044,0,0,0,715.983,424.779,27.061
2045,0,0,0,716.027,424.898,27.082
2046,0,0,0,716.062,424.990,27.056
2047,0,0,0,716.136,425.074,27.025
2048,0,0,0,716.206,425.119,27.056
2049,0,0,0,716.237,425.160,27.083
2050,0,0,0,716.326,425.182,27.128
2051,0,0,0,716.409,425.241,27.125
2052,0,0,0,716.402,425.228,27.202
2053,0,0,0,716.481,425.261,27.241
2054,0,0,0,716.523,425.265,27.288
2055,0,0,0,716.644,425.366,27.255
2056,0,0,0,716.604,425.400,27.320
2057,0,0,0,716.675,425.522,27.284
2058,0,0,0,716.629,425.632,27.268
2059,0,0,0,716.641,425.747,27.257
2060,0,0,0,716.588,425.856,27.297
2061,0,0,0,716.525,425.971,27.254
2062,0,0,0,716.556,426.146,27.195
2063,0,0,0,716.514,426.262,27.154
2064,0,0,0,716.469,426.366,27.134
2065,0,0,0,716.430,426.464,27.153
2066,0,0,0,716.451,426.606,27.116
2067,0,0,0,716.412,426.767,27.162
2068,0,0,0,716.332,426.925,27.161
2069,0,0,0,716.304,427.151,27.148
2070,0,0,0,716.312,427.419,27.062
2071,0,0,0,716.319,427.687,26.976
2072,0,0,0,716.213,427.918,26.964
2073,0,0,0,716.228,428.212,26.808
2074,0,0,0,716.199,428.464,26.711
2075,0,0,0,716.173,428.703,26.678
2076,0,0,0,716.212,428.987,26.559
2077,0,0,0,716.262,429.234,26.460
2078,0,0,0,716.219,429.485,26.404
2079,0,0,0,716.256,429.807,26.281
2080,0,0,0,716.342,430.172,26.115
2081,0,0,0,716.310,430.488,26.000
2082,0,0,0,716.367,430.850,25.846
2083,0,0,0,716.356,431.155,25.724
2084,0,0,0,716.394,431.490,25.581
2085,0,0,0,716.496,431.832,25.385
2086,0,0,0,716.676,432.194,25.174
2087,0,0,0,716.785,432.537,24.994
2088,0,0,0,716.948,432.949,24.801
2089,0,0,0,717.177,433.405,24.595
2090,0,0,0,717.317,433.802,24.449
2091,0,0,0,717.526,434.283,24.229
2092,0,0,0,717.738,434.751,24.001
2093,0,0,0,718.006,435.289,23.732
2094,0,0,0,718.152,435.776,23.544
2095,0,0,0,718.437,436.328,23.212
2096,0,0,0,718.643,436.848,22.915
2097,0,0,0,718.896,437.385,22.615
2098,0,0,0,719.127,437.920,22.343
2099,0,0,0,719.352,438.441,22.047
2100,0,0,0,719.540,438.933,21.833
2101,0,0,0,719.747,439.492,21.575
2102,0,0,0,719.896,440.032,21.333
2103,0,0,0,720.131,440.607,21.071
2104,0,0,0,720.298,441.136,20.850
2105,0,0,0,720.575,441.702,20.583
2106,0,0,0,720.765,442.208,20.348
2107,0,0,0,720.997,442.758,20.055
2108,0,0,0,721.174,443.250,19.854
2109,0,0,0,721.319,443.765,19.579
2110,0,0,0,721.400,444.300,19.344
2111,0,0,0,721.378,444.851,19.146
2112,0,0,0,721.326,445.424,18.946
2113,0,0,0,721.274,446.011,18.726
2114,0,0,0,721.266,446.615,18.459
2115,0,0,0,721.166,447.171,18.335
2116,0,0,0,721.169,447.738,18.088
2117,0,0,0,721.174,448.331,17.873
2118,0,0,0,721.104,448.853,17.696
2119,0,0,0,720.986,449.318,17.555
2120,0,0,0,720.896,449.863,17.364
2121,0,0,0,720.762,450.366,17.232
2122,0,0,0,720.586,450.877,17.133
2123,0,0,0,720.456,451.406,16.960
2124,0,0,0,720.355,451.925,16.795
2125,0,0,0,720.281,452.512,16.601
2126,0,0,0,720.194,453.045,16.474
2127,0,0,0,720.143,453.634,16.326
2128,0,0,0,720.131,454.201,16.194
2129,0,0,0,720.161,454.747,16.050
2130,0,0,0,720.107,455.259,15.895
2131,0,0,0,720.079,455.760,15.779
2132,0,0,0,720.110,456.229,15.598
2133,0,0,0,720.152,456.725,15.392
2134,0,0,0,720.154,457.139,15.249
2135,0,0,0,720.256,457.551,15.078
2136,0,0,0,720.346,457.948,14.867
2137,0,0,0,720.449,458.308,14.721
2138,0,0,0,720.599,458.621,14.546
2139,0,0,0,720.787,458.938,14.374
2140,0,0,0,720.919,459.185,14.243
2141,0,0,0,721.057,459.393,14.161
2142,0,0,0,721.153,459.596,14.105
2143,0,0,0,721.319,459.821,13.946
2144,0,0,0,721.464,460.004,13.818
2145,0,0,0,721.598,460.121,13.751
2146,0,0,0,721.722,460.159,13.662
2147,0,0,0,721.785,460.153,13.630
2148,0,0,0,721.842,460.043,13.560
2149,0,0,0,721.801,459.780,13.595
2150,0,0,0,721.824,459.420,13.657
2151,0,0,0,721.860,458.919,13.716
2152,0,0,0,721.659,458.174,13.963
2153,0,0,0,721.403,457.307,14.203
2154,0,0,0,720.718,456.127,14.668
2155,0,0,0,719.573,454.799,15.199
2156,0,0,0,717.793,453.085,16.036
2157,0,0,0,715.160,450.871,17.307
2158,0,0,0,711.912,447.848,18.949
2159,0,0,0,707.786,443.624,21.420
2160,0,0,0,702.957,438.123,24.687
2161,0,0,0,697.151,431.238,29.112
2162,0,0,0,690.754,422.946,34.443
2163,0,0,0,683.669,413.299,40.948
2164,0,0,0,676.163,402.461,48.583
2165,0,0,0,668.291,390.444,57.443
2166,0,0,0,660.110,377.380,67.548
2167,0,0,0,651.635,363.440,78.928
2168,0,0,0,642.763,348.820,91.808
2169,0,0,0,633.573,333.689,106.043
2170,0,0,0,624.350,318.410,121.450
2171,0,0,0,614.960,303.039,138.201
2172,0,0,0,605.603,287.678,156.120
2173,0,0,0,596.457,272.685,175.106
2174,0,0,0,587.358,258.033,195.112
2175,0,0,0,578.650,243.875,215.873
2176,0,0,0,570.252,230.268,237.396
2177,0,0,0,562.319,217.381,259.549
2178,0,0,0,554.748,205.113,282.341
2179,0,0,0,547.776,193.615,305.447
2180,0,0,0,541.448,182.972,328.885
2181,0,0,0,535.531,173.245,352.517
2182,0,0,0,530.184,164.491,376.111
2183,0,0,0,525.178,156.623,399.716
2184,0,0,0,520.745,149.599,423.118
2185,0,0,0,516.799,143.231,446.300
2186,0,0,0,513.321,137.484,469.076
2187,0,0,0,510.368,132.374,491.381
2188,0,0,0,507.802,127.847,513.080
2189,0,0,0,505.561,123.959,534.125
2190,0,0,0,503.436,120.602,554.560
2191,0,0,0,501.569,117.920,574.225
2192,0,0,0,499.938,115.758,593.125
2193,0,0,0,498.521,114.069,611.237
2194,0,0,0,497.401,112.759,628.538
2195,0,0,0,496.642,111.728,644.840
2196,0,0,0,496.048,110.942,660.207
2197,0,0,0,495.669,110.346,674.540
2198,0,0,0,495.330,109.926,687.948
2199,0,0,0,495.159,109.640,700.314
2200,0,0,0,495.140,109.437,711.723
2201,0,0,0,495.142,109.223,722.273
2202,0,0,0,495.306,109.044,731.861
2203,0,0,0,495.577,108.825,740.646
2204,0,0,0,495.850,108.569,748.570
2205,0,0,0,496.187,108.276,755.726
2206,0,0,0,496.475,107.974,762.146
2207,0,0,0,496.788,107.600,767.871
2208,0,0,0,497.099,107.155,772.974
2209,0,0,0,497.409,106.722,777.561
2210,0,0,0,497.677,106.341,781.691
2211,0,0,0,497.947,106.003,785.390
2212,0,0,0,498.146,105.708,788.843
2213,0,0,0,498.395,105.423,791.976
2214,0,0,0,498.647,105.213,794.972
2215,0,0,0,498.915,105.017,797.748
2216,0,0,0,499.290,104.904,800.326
2217,0,0,0,499.617,104.759,802.747
2218,0,0,0,499.995,104.659,805.012
2219,0,0,0,500.448,104.496,807.060
2220,0,0,0,500.847,104.382,808.997
2221,0,0,0,501.229,104.307,810.755
2222,0,0,0,501.618,104.264,812.328
2223,0,0,0,502.037,104.259,813.733
2224,0,0,0,502.474,104.240,815.050
2225,0,0,0,502.982,104.183,816.148
2226,0,0,0,503.478,104.110,817.115
2227,0,0,0,503.900,104.077,817.919
2228,0,0,0,504.158,104.071,818.589
2229,0,0,0,504.453,104.143,819.143
2230,0,0,0,504.657,104.187,819.648
2231,0,0,0,504.965,104.237,820.042
2232,0,0,0,505.330,104.256,820.397
2233,0,0,0,505.702,104.262,820.690
2234,0,0,0,505.993,104.230,820.988
2235,0,0,0,506.304,104.229,821.155
2236,0,0,0,506.470,104.262,821.296
2237,0,0,0,506.640,104.334,821.313
2238,0,0,0,506.770,104.366,821.262
2239,0,0,0,506.801,104.386,821.160
2240,0,0,0,506.842,104.390,820.979
2241,0,0,0,506.834,104.422,820.731
2242,0,0,0,506.757,104.490,820.452
2243,0,0,0,506.605,104.646,820.147
2244,0,0,0,506.368,104.845,819.818
2245,0,0,0,506.174,104.988,819.448
2246,0,0,0,506.035,105.031,819.023
2247,0,0,0,505.908,105.009,818.524
2248,0,0,0,505.750,104.985,817.982
2249,0,0,0,505.514,104.993,817.452
2250,0,0,0,505.258,105.053,816.875
2251,0,0,0,504.914,105.180,816.350
2252,0,0,0,504.582,105.288,815.780
2253,0,0,0,504.289,105.323,815.190
2254,0,0,0,504.024,105.298,814.625
2255,0,0,0,503.828,105.273,814.046
2256,0,0,0,503.685,105.260,813.501
2257,0,0,0,503.538,105.239,813.041
2258,0,0,0,503.452,105.292,812.631
2259,0,0,0,503.418,105.324,812.180
2260,0,0,0,503.347,105.367,811.724
2261,0,0,0,503.291,105.401,811.245
2262,0,0,0,503.387,105.439,810.657
2263,0,0,0,503.478,105.475,810.044
2264,0,0,0,503.658,105.441,809.370
2265,0,0,0,503.960,105.384,808.617
2266,0,0,0,504.227,105.217,807.765
2267,0,0,0,504.527,104.996,806.844
2268,0,0,0,504.792,104.776,805.821
2269,0,0,0,504.985,104.566,804.764
2270,0,0,0,505.073,104.385,803.736
2271,0,0,0,505.123,104.238,802.679
2272,0,0,0,505.106,104.074,801.648
2273,0,0,0,505.082,103.916,800.597
2274,0,0,0,505.033,103.711,799.632
2275,0,0,0,504.985,103.527,798.702
2276,0,0,0,504.937,103.389,797.878
2277,0,0,0,504.886,103.282,797.113
2278,0,0,0,504.749,103.170,796.436
2279,0,0,0,504.749,103.046,795.829
2280,0,0,0,504.708,102.866,795.250
2281,0,0,0,504.712,102.672,794.720
2282,0,0,0,504.700,102.492,794.329
2283,0,0,0,504.671,102.357,794.000
2284,0,0,0,504.643,102.319,793.764
2285,0,0,0,504.527,102.289,793.665
2286,0,0,0,504.414,102.253,793.575
2287,0,0,0,504.371,102.195,793.496
2288,0,0,0,504.323,102.139,793.449
2289,0,0,0,504.211,102.067,793.428
2290,0,0,0,504.135,102.050,793.462
2291,0,0,0,504.010,102.060,793.579
2292,0,0,0,503.898,102.064,793.783
2293,0,0,0,503.777,102.079,793.950
2294,0,0,0,503.680,102.092,794.135
2295,0,0,0,503.547,102.136,794.352
2296,0,0,0,503.361,102.248,794.633
2297,0,0,0,503.159,102.383,794.915
2298,0,0,0,502.998,102.513,795.175
2299,0,0,0,502.835,102.600,795.506
2300,0,0,0,502.691,102.671,795.757
2301,0,0,0,502.513,102.752,796.055
2302,0,0,0,502.294,102.871,796.381
2303,0,0,0,502.100,103.074,796.730
2304,0,0,0,501.811,103.277,797.141
2305,0,0,0,501.516,103.495,797.539
2306,0,0,0,501.247,103.680,797.913
2307,0,0,0,500.985,103.837,798.252
2308,0,0,0,500.807,104.021,798.565
2309,0,0,0,500.642,104.227,798.897
2310,0,0,0,500.355,104.409,799.270
2311,0,0,0,500.188,104.600,799.631
2312,0,0,0,499.963,104.736,799.970
2313,0,0,0,499.850,104.863,800.283
2314,0,0,0,499.707,104.992,800.594
2315,0,0,0,499.515,105.102,800.958
2316,0,0,0,499.365,105.299,801.259
2317,0,0,0,499.116,105.470,801.637
2318,0,0,0,498.900,105.642,801.975
2319,0,0,0,498.742,105.817,802.256
2320,0,0,0,498.537,105.950,802.537
2321,0,0,0,498.359,106.077,802.796
2322,0,0,0,498.152,106.197,803.031
2323,0,0,0,497.914,106.349,803.297
2324,0,0,0,497.684,106.527,803.556
2325,0,0,0,497.497,106.700,803.778
2326,0,0,0,497.320,106.787,803.989
2327,0,0,0,497.172,106.823,804.147
2328,0,0,0,496.972,106.831,804.293
2329,0,0,0,496.778,106.891,804.435
2330,0,0,0,496.518,106.991,804.571
2331,0,0,0,496.239,107.107,804.718
2332,0,0,0,495.963,107.221,804.850
2333,0,0,0,495.751,107.280,804.924
2334,0,0,0,495.539,107.343,804.963
2335,0,0,0,495.302,107.363,804.955
2336,0,0,0,495.084,107.429,805.026
2337,0,0,0,494.879,107.526,805.133
2338,0,0,0,494.652,107.607,805.284
2339,0,0,0,494.512,107.642,805.426
2340,0,0,0,494.449,107.633,805.517
2341,0,0,0,494.398,107.621,805.576
2342,0,0,0,494.322,107.558,805.664
2343,0,0,0,494.317,107.569,805.778
2344,0,0,0,494.250,107.559,805.944
2345,0,0,0,494.259,107.583,806.080
2346,0,0,0,494.235,107.565,806.192
2347,0,0,0,494.185,107.536,806.239
2348,0,0,0,494.168,107.521,806.284
2349,0,0,0,494.059,107.526,806.344
2350,0,0,0,494.034,107.578,806.388
2351,0,0,0,493.923,107.656,806.412
2352,0,0,0,493.837,107.717,806.392
2353,0,0,0,493.748,107.670,806.332
2354,0,0,0,493.742,107.593,806.176
2355,0,0,0,493.760,107.513,806.031
2356,0,0,0,493.756,107.439,805.832
2357,0,0,0,493.704,107.378,805.737
2358,0,0,0,493.665,107.375,805.610
2359,0,0,0,493.638,107.354,805.447
2360,0,0,0,493.524,107.308,805.353
2361,0,0,0,493.477,107.230,805.178
2362,0,0,0,493.439,107.143,805.065
2363,0,0,0,493.399,107.076,804.980
2364,0,0,0,493.366,107.039,804.921
2365,0,0,0,493.313,106.967,804.895
2366,0,0,0,493.287,106.906,804.851
2367,0,0,0,493.261,106.818,804.864
2368,0,0,0,493.225,106.683,804.856
2369,0,0,0,493.248,106.564,804.838
2370,0,0,0,493.242,106.462,804.931
2371,0,0,0,493.244,106.369,805.022
2372,0,0,0,493.280,106.293,805.144
2373,0,0,0,493.282,106.197,805.286
2374,0,0,0,493.286,106.086,805.441
2375,0,0,0,493.314,106.023,805.618
2376,0,0,0,493.274,105.964,805.848
2377,0,0,0,493.227,105.951,806.125
2378,0,0,0,493.233,105.911,806.394
2379,0,0,0,493.282,105.884,806.705
2380,0,0,0,493.356,105.823,806.992
2381,0,0,0,493.449,105.742,807.293
2382,0,0,0,493.541,105.647,807.623
2383,0,0,0,493.631,105.602,807.948
2384,0,0,0,493.691,105.557,808.238
2385,0,0,0,493.766,105.553,808.568
2386,0,0,0,493.800,105.514,808.872
2387,0,0,0,493.850,105.467,809.079
2388,0,0,0,493.861,105.398,809.305
2389,0,0,0,493.863,105.352,809.509
2390,0,0,0,493.811,105.376,809.742
2391,0,0,0,493.682,105.415,809.992
2392,0,0,0,493.586,105.448,810.211
2393,0,0,0,493.538,105.474,810.444
2394,0,0,0,493.485,105.425,810.637
2395,0,0,0,493.457,105.393,810.860
2396,0,0,0,493.391,105.384,811.117
2397,0,0,0,493.374,105.358,811.464
2398,0,0,0,493.396,105.334,811.771
2399,0,0,0,493.398,105.326,812.089
2400,0,0,0,493.374,105.296,812.412
2401,0,0,0,493.326,105.294,812.709
2402,0,0,0,493.298,105.284,812.901
2403,0,0,0,493.268,105.272,813.161
2404,0,0,0,493.236,105.327,813.411
2405,0,0,0,493.177,105.342,813.645
2406,0,0,0,493.161,105.377,813.834
2407,0,0,0,493.178,105.418,813.957
2408,0,0,0,493.149,105.491,814.045
2409,0,0,0,493.157,105.596,814.135
2410,0,0,0,493.044,105.725,814.320
2411,0,0,0,493.003,105.853,814.551
2412,0,0,0,493.079,105.940,814.848
2413,0,0,0,493.182,105.938,815.236
2414,0,0,0,493.344,105.902,815.610
2415,0,0,0,493.432,105.872,816.071
2416,0,0,0,493.444,105.883,816.558
2417,0,0,0,493.431,105.935,817.074
2418,0,0,0,493.361,106.029,817.660
2419,0,0,0,493.316,106.121,818.205
2420,0,0,0,493.213,106.156,818.779
2421,0,0,0,493.178,106.191,819.248
2422,0,0,0,493.134,106.219,819.744
2423,0,0,0,493.021,106.252,820.234
2424,0,0,0,492.951,106.314,820.760
2425,0,0,0,492.818,106.377,821.241
2426,0,0,0,492.692,106.441,821.731
2427,0,0,0,492.596,106.447,822.178
2428,0,0,0,492.504,106.464,822.640
2429,0,0,0,492.310,106.466,823.124
2430,0,0,0,492.161,106.530,823.644
2431,0,0,0,491.896,106.606,824.131
2432,0,0,0,491.762,106.686,824.541
2433,0,0,0,491.551,106.704,824.954
2434,0,0,0,491.348,106.683,825.245
2435,0,0,0,491.114,106.660,825.469
2436,0,0,0,490.854,106.617,825.639
2437,0,0,0,490.582,106.595,825.779
2438,0,0,0,490.361,106.497,825.759
2439,0,0,0,490.148,106.320,825.628
2440,0,0,0,489.934,106.086,825.363
2441,0,0,0,489.747,105.869,824.972
2442,0,0,0,489.508,105.629,824.533
2443,0,0,0,489.338,105.355,823.902
2444,0,0,0,489.207,105.069,823.176
2445,0,0,0,489.071,104.715,822.219
2446,0,0,0,489.003,104.276,820.999
2447,0,0,0,488.950,103.716,819.494
2448,0,0,0,488.953,103.012,817.598
2449,0,0,0,488.975,102.265,815.282
2450,0,0,0,488.814,101.491,812.594
2451,0,0,0,488.643,100.676,809.480
2452,0,0,0,488.334,99.905,806.032
2453,0,0,0,488.047,99.180,802.199
2454,0,0,0,487.770,98.473,797.959
2455,0,0,0,487.632,97.677,793.249
2456,0,0,0,487.653,96.809,788.029
2457,0,0,0,487.863,95.848,782.214
2458,0,0,0,488.177,94.829,775.726
2459,0,0,0,488.516,93.823,768.530
2460,0,0,0,488.832,92.910,760.403
2461,0,0,0,489.143,92.042,751.353
2462,0,0,0,489.523,91.163,741.205
2463,0,0,0,489.821,90.286,729.989
2464,0,0,0,490.200,89.495,717.645
2465,0,0,0,490.489,88.898,704.264
2466,0,0,0,490.811,88.535,689.981
2467,0,0,0,491.390,88.405,674.715
2468,0,0,0,492.123,88.386,658.598
2469,0,0,0,493.241,88.530,641.555
2470,0,0,0,494.541,88.953,623.744
2471,0,0,0,496.069,89.859,605.300
2472,0,0,0,497.640,91.300,586.473
2473,0,0,0,499.315,93.358,567.174
2474,0,0,0,501.050,95.987,547.509
2475,0,0,0,503.097,99.129,527.373
2476,0,0,0,505.454,102.864,506.851
2477,0,0,0,508.042,107.212,486.117
2478,0,0,0,510.828,112.209,465.428
2479,0,0,0,513.873,117.911,444.812
2480,0,0,0,517.121,124.219,424.403
2481,0,0,0,520.744,131.029,404.045
2482,0,0,0,524.776,138.204,383.881
2483,0,0,0,529.193,145.708,363.968
2484,0,0,0,533.975,153.499,344.455
2485,0,0,0,539.208,161.728,325.386
2486,0,0,0,544.547,170.209,306.963
2487,0,0,0,549.891,178.949,289.244
2488,0,0,0,555.381,187.996,272.039
2489,0,0,0,560.670,197.207,255.653
2490,0,0,0,565.979,206.541,240.013
2491,0,0,0,571.312,215.916,225.170
2492,0,0,0,576.636,225.148,211.155
2493,0,0,0,582.152,234.258,197.728
2494,0,0,0,587.662,243.261,185.086
2495,0,0,0,593.201,252.139,173.057
2496,0,0,0,598.534,260.737,161.952
2497,0,0,0,603.983,269.096,151.423
2498,0,0,0,609.365,277.043,141.715
2499,0,0,0,614.869,284.662,132.692
2500,0,0,0,620.454,291.860,124.126
2501,0,0,0,626.143,298.868,116.058
2502,0,0,0,631.782,305.724,108.382
2503,0,0,0,637.153,312.577,101.033
2504,0,0,0,642.147,319.385,94.175
2505,0,0,0,646.696,326.188,87.840
2506,0,0,0,651.102,333.055,81.630
2507,0,0,0,655.167,339.565,76.036
2508,0,0,0,659.177,345.816,70.918
2509,0,0,0,663.345,351.726,66.104
2510,0,0,0,667.598,357.242,61.575
2511,0,0,0,671.941,362.507,57.303
2512,0,0,0,676.184,367.557,53.309
2513,0,0,0,680.190,372.478,49.544
2514,0,0,0,683.933,377.225,46.119
2515,0,0,0,687.545,381.926,42.809
2516,0,0,0,690.835,386.470,39.868
2517,0,0,0,694.139,390.850,37.025
2518,0,0,0,697.404,395.111,34.268
2519,0,0,0,700.683,399.280,31.502
2520,0,0,0,703.694,403.393,28.919
2521,0,0,0,706.320,407.386,26.563
2522,0,0,0,708.540,411.182,24.383
2523,0,0,0,710.573,414.928,22.261
2524,0,0,0,712.242,418.265,20.554
2525,0,0,0,714.087,421.371,18.840
2526,0,0,0,715.748,423.967,17.470
2527,0,0,0,717.408,426.183,16.301
2528,0,0,0,719.000,428.114,15.337
2529,0,0,0,720.401,429.745,14.553
2530,0,0,0,721.498,431.118,14.059
2531,0,0,0,722.352,432.250,13.738
2532,0,0,0,722.973,433.218,13.611
2533,0,0,0,723.548,433.965,13.543
2534,0,0,0,724.019,434.420,13.575
2535,0,0,0,724.480,434.669,13.751
2536,0,0,0,724.855,434.717,14.042
2537,0,0,0,725.220,434.534,14.344
2538,0,0,0,725.484,434.226,14.765
2539,0,0,0,725.748,433.867,15.139
2540,0,0,0,725.828,433.311,15.655
2541,0,0,0,725.824,432.786,16.116
2542,0,0,0,725.747,432.241,16.562
2543,0,0,0,725.615,431.641,17.027
2544,0,0,0,725.536,430.982,17.397
2545,0,0,0,725.482,430.236,17.798
2546,0,0,0,725.462,429.417,18.197
2547,0,0,0,725.217,428.475,18.697
2548,0,0,0,724.813,427.608,19.182
2549,0,0,0,724.259,426.828,19.647
2550,0,0,0,723.690,425.972,20.147
2551,0,0,0,723.130,425.141,20.694
2552,0,0,0,722.725,424.288,21.114
2553,0,0,0,722.381,423.454,21.562
2554,0,0,0,722.091,422.600,21.984
2555,0,0,0,721.687,421.697,22.501
2556,0,0,0,721.310,420.899,22.956
2557,0,0,0,720.938,420.076,23.394
2558,0,0,0,720.558,419.253,23.818
2559,0,0,0,720.119,418.488,24.292
2560,0,0,0,719.617,417.794,24.751
2561,0,0,0,719.172,417.231,25.053
2562,0,0,0,718.775,416.711,25.340
2563,0,0,0,718.424,416.208,25.553
2564,0,0,0,718.042,415.791,25.720
2565,0,0,0,717.485,415.382,25.960
2566,0,0,0,716.846,415.167,26.051
2567,0,0,0,715.931,414.989,26.304
2568,0,0,0,715.083,414.956,26.394
2569,0,0,0,714.181,414.942,26.583
2570,0,0,0,713.458,414.984,26.552
2571,0,0,0,712.755,415.002,26.608
2572,0,0,0,712.111,414.988,26.745
2573,0,0,0,711.557,414.894,26.833
2574,0,0,0,711.082,414.796,26.919
2575,0,0,0,710.514,414.524,27.237
2576,0,0,0,710.148,414.311,27.452
2577,0,0,0,709.835,413.951,27.731
2578,0,0,0,709.550,413.657,27.981
2579,0,0,0,709.065,413.356,28.353
2580,0,0,0,708.678,413.241,28.589
2581,0,0,0,708.290,413.114,28.774
2582,0,0,0,707.970,413.107,28.879
2583,0,0,0,707.638,413.074,29.083
2584,0,0,0,707.453,413.093,29.150
2585,0,0,0,707.303,413.053,29.222
2586,0,0,0,707.234,413.046,29.231
2587,0,0,0,707.279,413.050,29.250
2588,0,0,0,707.256,413.036,29.297
2589,0,0,0,707.192,412.991,29.382
2590,0,0,0,707.147,412.987,29.436
2591,0,0,0,707.148,412.987,29.508
2592,0,0,0,707.245,413.073,29.522
2593,0,0,0,707.316,413.106,29.544
2594,0,0,0,707.488,413.136,29.537
2595,0,0,0,707.609,413.174,29.549
2596,0,0,0,707.790,413.218,29.537
2597,0,0,0,707.946,413.297,29.476
2598,0,0,0,708.005,413.442,29.441
2599,0,0,0,708.013,413.658,29.380
2600,0,0,0,707.994,413.883,29.383
2601,0,0,0,708.075,414.233,29.194
2602,0,0,0,708.097,414.551,29.113
2603,0,0,0,708.242,414.932,28.931
2604,0,0,0,708.397,415.239,28.802
2605,0,0,0,708.551,415.457,28.657
2606,0,0,0,708.739,415.641,28.578
2607,0,0,0,708.921,415.786,28.488
2608,0,0,0,709.045,415.849,28.459
2609,0,0,0,709.092,415.917,28.504
2610,0,0,0,709.163,416.063,28.456
2611,0,0,0,709.152,416.214,28.439
2612,0,0,0,709.117,416.350,28.396
2613,0,0,0,709.133,416.478,28.408
2614,0,0,0,709.206,416.638,28.340
2615,0,0,0,709.273,416.720,28.294
2616,0,0,0,709.363,416.818,28.272
2617,0,0,0,709.443,416.852,28.310
2618,0,0,0,709.459,416.891,28.307
2619,0,0,0,709.483,416.881,28.344
2620,0,0,0,709.544,416.887,28.320
2621,0,0,0,709.573,416.903,28.316
2622,0,0,0,709.580,416.929,28.319
2623,0,0,0,709.561,416.991,28.344
2624,0,0,0,709.572,417.042,28.306
2625,0,0,0,709.573,417.169,28.287
2626,0,0,0,709.636,417.277,28.257
2627,0,0,0,709.699,417.422,28.194
2628,0,0,0,709.706,417.563,28.199
2629,0,0,0,709.741,417.718,28.127
2630,0,0,0,709.706,417.854,28.157
2631,0,0,0,709.742,418.022,28.066
2632,0,0,0,709.729,418.122,28.029
2633,0,0,0,709.662,418.217,28.032
2634,0,0,0,709.640,418.341,27.968
2635,0,0,0,709.579,418.411,27.955
2636,0,0,0,709.564,418.499,28.011
2637,0,0,0,709.539,418.598,27.989
2638,0,0,0,709.471,418.705,27.999
2639,0,0,0,709.463,418.818,27.986
2640,0,0,0,709.353,418.921,28.023
2641,0,0,0,709.232,418.998,28.157
2642,0,0,0,709.148,419.129,28.125
2643,0,0,0,709.111,419.277,28.091
2644,0,0,0,709.055,419.398,28.068
2645,0,0,0,708.970,419.554,28.024
2646,0,0,0,708.938,419.716,27.941
2647,0,0,0,708.855,419.834,27.901
2648,0,0,0,708.825,419.983,27.882
2649,0,0,0,708.721,420.049,27.894
2650,0,0,0,708.741,420.203,27.792
2651,0,0,0,708.703,420.313,27.791
2652,0,0,0,708.666,420.436,27.769
2653,0,0,0,708.724,420.595,27.743
2654,0,0,0,708.716,420.733,27.717
2655,0,0,0,708.731,420.913,27.704
2656,0,0,0,708.785,421.134,27.589
2657,0,0,0,708.776,421.336,27.518
2658,0,0,0,708.747,421.523,27.466
2659,0,0,0,708.816,421.746,27.308
2660,0,0,0,708.805,421.909,27.198
2661,0,0,0,708.825,422.013,27.194
2662,0,0,0,708.859,422.105,27.168
2663,0,0,0,709.018,422.236,27.053
2664,0,0,0,709.023,422.249,27.148
2665,0,0,0,709.154,422.301,27.155
2666,0,0,0,709.212,422.370,27.186
2667,0,0,0,709.313,422.431,27.184
2668,0,0,0,709.374,422.463,27.148
2669,0,0,0,709.498,422.564,27.086
2670,0,0,0,709.516,422.617,27.062
2671,0,0,0,709.565,422.711,26.994
2672,0,0,0,709.507,422.705,26.990
2673,0,0,0,709.580,422.814,26.874
2674,0,0,0,709.626,422.882,26.847
2675,0,0,0,709.641,422.947,26.832
2676,0,0,0,709.667,423.000,26.823
2677,0,0,0,709.712,423.094,26.784
2678,0,0,0,709.747,423.123,26.803
2679,0,0,0,709.767,423.189,26.831
2680,0,0,0,709.738,423.224,26.882
2681,0,0,0,709.743,423.288,26.881
2682,0,0,0,709.728,423.350,26.877
2683,0,0,0,709.731,423.464,26.851
2684,0,0,0,709.671,423.522,26.829
2685,0,0,0,709.621,423.542,26.827
2686,0,0,0,709.554,423.548,26.815
2687,0,0,0,709.531,423.571,26.830
2688,0,0,0,709.458,423.576,26.875
2689,0,0,0,709.416,423.598,26.888
2690,0,0,0,709.404,423.622,26.889
2691,0,0,0,709.367,423.682,26.913
2692,0,0,0,709.308,423.739,26.964
2693,0,0,0,709.296,423.814,26.940
2694,0,0,0,709.249,423.886,26.956
2695,0,0,0,709.205,423.958,26.945
2696,0,0,0,709.129,424.001,26.913
2697,0,0,0,709.091,424.060,26.865
2698,0,0,0,709.058,424.133,26.839
2699,0,0,0,708.977,424.112,26.882
2700,0,0,0,708.965,424.187,26.858
2701,0,0,0,708.929,424.222,26.894
2702,0,0,0,708.917,424.348,26.890
2703,0,0,0,708.892,424.434,26.887
2704,0,0,0,708.938,424.503,26.860
2705,0,0,0,708.852,424.557,26.894
2706,0,0,0,708.903,424.639,26.890
2707,0,0,0,708.923,424.679,26.859
2708,0,0,0,708.870,424.674,26.825
2709,0,0,0,708.842,424.722,26.784
2710,0,0,0,708.847,424.773,26.702
2711,0,0,0,708.883,424.853,26.595
2712,0,0,0,708.862,424.927,26.556
2713,0,0,0,708.829,424.962,26.564
2714,0,0,0,708.863,425.016,26.571
2715,0,0,0,708.963,425.166,26.438
2716,0,0,0,708.979,425.193,26.456
2717,0,0,0,709.051,425.328,26.400
2718,0,0,0,709.068,425.367,26.397
2719,0,0,0,709.070,425.419,26.344
2720,0,0,0,709.092,425.510,26.259
2721,0,0,0,709.061,425.596,26.140
2722,0,0,0,709.077,425.673,26.032
2723,0,0,0,709.097,425.815,25.923
2724,0,0,0,709.149,425.973,25.780
2725,0,0,0,709.177,426.103,25.706
2726,0,0,0,709.263,426.188,25.733
2727,0,0,0,709.461,426.310,25.686
2728,0,0,0,709.569,426.385,25.707
2729,0,0,0,709.731,426.541,25.623
2730,0,0,0,709.803,426.638,25.600
2731,0,0,0,709.851,426.732,25.531
2732,0,0,0,709.890,426.837,25.456
2733,0,0,0,709.986,427.025,25.247
2734,0,0,0,709.956,427.086,25.141
2735,0,0,0,709.962,427.176,25.026
2736,0,0,0,710.112,427.254,24.921
2737,0,0,0,710.324,427.365,24.779
2738,0,0,0,710.503,427.434,24.683
2739,0,0,0,710.623,427.484,24.703
2740,0,0,0,710.732,427.610,24.671
2741,0,0,0,710.865,427.764,24.671
2742,0,0,0,710.996,427.904,24.619
2743,0,0,0,711.128,428.071,24.527
2744,0,0,0,711.367,428.222,24.369
2745,0,0,0,711.496,428.337,24.258
2746,0,0,0,711.661,428.443,24.026
2747,0,0,0,711.868,428.528,23.780
2748,0,0,0,712.068,428.497,23.591
2749,0,0,0,712.205,428.383,23.418
2750,0,0,0,712.405,428.237,23.299
2751,0,0,0,712.593,427.963,23.212
2752,0,0,0,712.861,427.570,23.121
2753,0,0,0,713.050,426.939,23.194
2754,0,0,0,713.148,426.057,23.320
2755,0,0,0,713.106,425.022,23.574
2756,0,0,0,712.700,423.786,23.878
2757,0,0,0,711.958,422.313,24.326
2758,0,0,0,710.571,420.484,24.978
2759,0,0,0,708.768,418.094,25.953
2760,0,0,0,706.465,414.921,27.377
2761,0,0,0,703.625,410.863,29.225
2762,0,0,0,699.932,405.743,32.006
2763,0,0,0,695.393,399.607,35.630
2764,0,0,0,689.906,392.428,40.282
2765,0,0,0,683.473,384.208,46.021
2766,0,0,0,676.461,375.013,52.842
2767,0,0,0,669.104,364.939,60.704
2768,0,0,0,661.552,354.108,69.499
2769,0,0,0,653.842,342.562,79.282
2770,0,0,0,645.803,330.473,90.120
2771,0,0,0,637.529,317.981,101.949
2772,0,0,0,628.926,305.120,114.794
2773,0,0,0,620.243,292.034,128.624
2774,0,0,0,611.468,278.803,143.482
2775,0,0,0,602.609,265.561,159.351
2776,0,0,0,593.807,252.388,176.222
2777,0,0,0,585.074,239.494,194.076
2778,0,0,0,576.644,226.948,212.587
2779,0,0,0,568.490,214.829,231.734
2780,0,0,0,560.623,203.181,251.487
2781,0,0,0,553.284,192.137,271.642
2782,0,0,0,546.177,181.729,292.168
2783,0,0,0,539.481,172.003,312.860
2784,0,0,0,533.272,162.879,333.492
2785,0,0,0,527.634,154.331,354.072
2786,0,0,0,522.425,146.360,374.529
2787,0,0,0,517.732,138.913,394.815
2788,0,0,0,513.395,132.122,414.786
2789,0,0,0,509.340,125.975,434.513
2790,0,0,0,505.578,120.395,453.870
2791,0,0,0,502.224,115.373,472.696
2792,0,0,0,499.182,110.796,491.057
2793,0,0,0,496.709,106.700,508.778
2794,0,0,0,494.315,102.924,526.075
2795,0,0,0,492.435,99.674,542.739
2796,0,0,0,490.719,96.836,558.921
2797,0,0,0,489.243,94.302,574.548
2798,0,0,0,488.156,92.102,589.555
2799,0,0,0,487.307,90.109,604.009
2800,0,0,0,486.674,88.380,617.849
2801,0,0,0,486.223,86.938,630.981
2802,0,0,0,485.803,85.795,643.500
2803,0,0,0,485.475,84.839,655.313
2804,0,0,0,485.272,84.075,666.472
2805,0,0,0,485.263,83.433,677.001
2806,0,0,0,485.349,82.950,686.934
2807,0,0,0,485.534,82.669,696.361
2808,0,0,0,485.810,82.560,705.204
2809,0,0,0,486.217,82.537,713.466
2810,0,0,0,486.669,82.547,721.186
2811,0,0,0,487.214,82.507,728.278
2812,0,0,0,487.791,82.414,734.809
2813,0,0,0,488.392,82.403,740.757
2814,0,0,0,488.801,82.458,746.245
2815,0,0,0,489.100,82.583,751.264
2816,0,0,0,489.334,82.682,755.745
2817,0,0,0,489.348,82.730,759.778
2818,0,0,0,489.372,82.732,763.384
2819,0,0,0,489.216,82.776,766.695
2820,0,0,0,488.966,82.956,769.752
2821,0,0,0,488.576,83.298,772.701
2822,0,0,0,488.129,83.763,775.530
2823,0,0,0,487.731,84.208,778.268
2824,0,0,0,487.519,84.522,780.707
2825,0,0,0,487.423,84.790,782.940
2826,0,0,0,487.408,85.001,784.927
2827,0,0,0,487.362,85.263,786.811
2828,0,0,0,487.291,85.576,788.493
2829,0,0,0,487.243,85.966,790.002
2830,0,0,0,487.021,86.302,791.280
2831,0,0,0,486.841,86.560,792.262
2832,0,0,0,486.610,86.805,792.975
2833,0,0,0,486.398,87.066,793.567
2834,0,0,0,486.169,87.401,794.087
2835,0,0,0,485.981,87.726,794.537
2836,0,0,0,485.756,87.972,794.871
2837,0,0,0,485.621,88.140,795.055
2838,0,0,0,485.464,88.249,795.119
2839,0,0,0,485.231,88.303,795.044
2840,0,0,0,485.043,88.424,794.877
2841,0,0,0,484.764,88.611,794.688
2842,0,0,0,484.424,88.863,794.480
2843,0,0,0,484.045,89.148,794.243
2844,0,0,0,483.722,89.411,793.948
2845,0,0,0,483.501,89.600,793.602
2846,0,0,0,483.336,89.766,793.198
2847,0,0,0,483.214,89.911,792.759
2848,0,0,0,483.078,90.064,792.342
2849,0,0,0,482.986,90.191,791.926
2850,0,0,0,482.908,90.280,791.461
2851,0,0,0,482.772,90.380,790.949
2852,0,0,0,482.679,90.503,790.348
2853,0,0,0,482.494,90.643,789.721
2854,0,0,0,482.270,90.820,789.108
2855,0,0,0,482.119,90.956,788.399
2856,0,0,0,481.998,91.031,787.716
2857,0,0,0,482.007,91.017,786.945
2858,0,0,0,482.049,90.922,786.170
2859,0,0,0,482.208,90.808,785.347
2860,0,0,0,482.403,90.698,784.507
2861,0,0,0,482.588,90.657,783.690
2862,0,0,0,482.760,90.615,782.804
2863,0,0,0,482.896,90.464,781.844
2864,0,0,0,483.110,90.259,780.740
2865,0,0,0,483.251,89.990,779.633
2866,0,0,0,483.376,89.785,778.507
2867,0,0,0,483.417,89.649,777.442
2868,0,0,0,483.439,89.552,776.451
2869,0,0,0,483.417,89.442,775.554
2870,0,0,0,483.317,89.232,774.662
2871,0,0,0,483.307,88.988,773.708
2872,0,0,0,483.224,88.764,772.820
2873,0,0,0,483.081,88.617,772.011
2874,0,0,0,482.913,88.563,771.311
2875,0,0,0,482.626,88.612,770.790
2876,0,0,0,482.473,88.646,770.321
2877,0,0,0,482.384,88.623,769.931
2878,0,0,0,482.373,88.503,769.639
2879,0,0,0,482.463,88.418,769.351
2880,0,0,0,482.573,88.326,769.134
2881,0,0,0,482.663,88.292,769.002
2882,0,0,0,482.750,88.259,768.955
2883,0,0,0,482.852,88.265,768.932
2884,0,0,0,482.926,88.240,768.900
2885,0,0,0,483.040,88.193,768.849
2886,0,0,0,483.177,88.146,768.834
2887,0,0,0,483.390,88.062,768.833
2888,0,0,0,483.592,87.981,768.881
2889,0,0,0,483.767,87.878,768.926
2890,0,0,0,483.948,87.786,768.985
2891,0,0,0,484.079,87.737,769.038
2892,0,0,0,484.113,87.743,769.123
2893,0,0,0,484.158,87.787,769.216
2894,0,0,0,484.134,87.822,769.265
2895,0,0,0,484.148,87.866,769.330
2896,0,0,0,484.146,87.880,769.378
2897,0,0,0,484.154,87.886,769.427
2898,0,0,0,484.168,87.878,769.490
2899,0,0,0,484.127,87.875,769.600
2900,0,0,0,484.119,87.917,769.682
2901,0,0,0,484.010,87.960,769.845
2902,0,0,0,483.933,88.040,769.990
2903,0,0,0,483.832,88.116,770.203
2904,0,0,0,483.778,88.165,770.418
2905,0,0,0,483.853,88.207,770.606
2906,0,0,0,483.930,88.242,770.813
2907,0,0,0,483.871,88.285,771.054
2908,0,0,0,483.803,88.372,771.326
2909,0,0,0,483.707,88.488,771.597
2910,0,0,0,483.604,88.608,771.832
2911,0,0,0,483.506,88.783,772.086
2912,0,0,0,483.421,88.828,772.309
2913,0,0,0,483.377,88.880,772.463
2914,0,0,0,483.321,88.941,772.631
2915,0,0,0,483.185,89.053,772.841
2916,0,0,0,483.024,89.186,773.053
2917,0,0,0,482.937,89.360,773.282
2918,0,0,0,482.797,89.469,773.468
2919,0,0,0,482.709,89.570,773.589
2920,0,0,0,482.598,89.641,773.701
2921,0,0,0,482.492,89.743,773.856
2922,0,0,0,482.407,89.837,774.064
2923,0,0,0,482.329,89.975,774.347
2924,0,0,0,482.260,90.105,774.614
2925,0,0,0,482.135,90.266,774.947
2926,0,0,0,482.082,90.388,775.201
2927,0,0,0,482.079,90.473,775.433
2928,0,0,0,482.029,90.528,775.619
2929,0,0,0,481.974,90.631,775.852
2930,0,0,0,481.926,90.697,776.070
2931,0,0,0,481.913,90.803,776.270
2932,0,0,0,481.896,90.891,776.475
2933,0,0,0,481.864,90.960,776.684
2934,0,0,0,481.813,91.008,776.881
2935,0,0,0,481.797,91.066,777.043
2936,0,0,0,481.722,91.150,777.305
2937,0,0,0,481.670,91.280,777.548
2938,0,0,0,481.634,91.373,777.835
2939,0,0,0,481.602,91.463,778.149
2940,0,0,0,481.593,91.520,778.370
2941,0,0,0,481.612,91.531,778.597
2942,0,0,0,481.631,91.532,778.819
2943,0,0,0,481.648,91.556,779.093
2944,0,0,0,481.583,91.647,779.472
2945,0,0,0,481.531,91.718,779.815
2946,0,0,0,481.501,91.816,780.126
2947,0,0,0,481.534,91.870,780.418
2948,0,0,0,481.521,91.926,780.708
2949,0,0,0,481.531,91.957,780.979
2950,0,0,0,481.555,92.035,781.264
2951,0,0,0,481.571,92.094,781.545
2952,0,0,0,481.625,92.171,781.848
2953,0,0,0,481.650,92.176,782.094
2954,0,0,0,481.706,92.174,782.376
2955,0,0,0,481.759,92.173,782.607
2956,0,0,0,481.779,92.187,782.859
2957,0,0,0,481.766,92.244,783.164
2958,0,0,0,481.751,92.310,783.475
2959,0,0,0,481.759,92.348,783.736
2960,0,0,0,481.745,92.375,783.931
2961,0,0,0,481.760,92.385,784.081
2962,0,0,0,481.718,92.414,784.249
2963,0,0,0,481.688,92.418,784.416
2964,0,0,0,481.675,92.467,784.571
2965,0,0,0,481.642,92.526,784.773
2966,0,0,0,481.672,92.547,784.997
2967,0,0,0,481.734,92.536,785.189
2968,0,0,0,481.762,92.528,785.386
2969,0,0,0,481.718,92.534,785.661
2970,0,0,0,481.711,92.563,785.864
2971,0,0,0,481.722,92.604,786.073
2972,0,0,0,481.747,92.655,786.263
2973,0,0,0,481.742,92.668,786.471
2974,0,0,0,481.782,92.685,786.645
2975,0,0,0,481.802,92.673,786.818
2976,0,0,0,481.850,92.667,786.999
2977,0,0,0,481.837,92.659,787.254
2978,0,0,0,481.882,92.686,787.518
2979,0,0,0,481.936,92.714,787.766
2980,0,0,0,481.974,92.702,787.991
2981,0,0,0,482.051,92.663,788.224
2982,0,0,0,482.090,92.614,788.492
2983,0,0,0,482.113,92.585,788.745
2984,0,0,0,482.164,92.614,789.009
2985,0,0,0,482.126,92.643,789.328
2986,0,0,0,482.087,92.652,789.635
2987,0,0,0,482.043,92.691,789.901
2988,0,0,0,482.062,92.698,790.094
2989,0,0,0,482.072,92.734,790.328
2990,0,0,0,482.057,92.694,790.616
2991,0,0,0,482.166,92.672,790.871
2992,0,0,0,482.266,92.599,791.223
2993,0,0,0,482.370,92.544,791.579
2994,0,0,0,482.493,92.523,791.902
2995,0,0,0,482.541,92.496,792.281
2996,0,0,0,482.611,92.492,792.680
2997,0,0,0,482.718,92.469,793.011
2998,0,0,0,482.833,92.431,793.345
2999,0,0,0,482.947,92.367,793.678
3000,0,0,0,483.017,92.319,794.064
3001,0,0,0,483.151,92.303,794.418
3002,0,0,0,483.278,92.319,794.756
3003,0,0,0,483.334,92.316,795.111
3004,0,0,0,483.333,92.336,795.450
3005,0,0,0,483.369,92.334,795.771
3006,0,0,0,483.475,92.312,796.025
3007,0,0,0,483.593,92.259,796.296
3008,0,0,0,483.740,92.241,796.601
3009,0,0,0,483.810,92.234,796.974
3010,0,0,0,483.902,92.197,797.349
3011,0,0,0,484.089,92.197,797.684
3012,0,0,0,484.206,92.176,798.088
3013,0,0,0,484.305,92.145,798.436
3014,0,0,0,484.332,92.160,798.760
3015,0,0,0,484.414,92.188,799.124
3016,0,0,0,484.502,92.187,799.522
3017,0,0,0,484.605,92.206,799.932
3018,0,0,0,484.629,92.184,800.315
3019,0,0,0,484.777,92.168,800.644
3020,0,0,0,484.808,92.180,801.093
3021,0,0,0,484.799,92.213,801.560
3022,0,0,0,484.822,92.275,802.012
3023,0,0,0,484.777,92.323,802.515
3024,0,0,0,484.793,92.324,802.966
3025,0,0,0,484.809,92.327,803.433
3026,0,0,0,484.812,92.337,803.914
3027,0,0,0,484.851,92.369,804.375
3028,0,0,0,484.796,92.420,804.925
3029,0,0,0,484.790,92.508,805.427
3030,0,0,0,484.724,92.557,805.902
3031,0,0,0,484.693,92.626,806.349
3032,0,0,0,484.663,92.614,806.750
3033,0,0,0,484.625,92.620,807.170
3034,0,0,0,484.608,92.600,807.557
3035,0,0,0,484.617,92.563,807.900
3036,0,0,0,484.591,92.547,808.260
3037,0,0,0,484.479,92.549,808.529
3038,0,0,0,484.420,92.535,808.729
3039,0,0,0,484.356,92.551,808.813
3040,0,0,0,484.344,92.490,808.746
3041,0,0,0,484.363,92.420,808.540
3042,0,0,0,484.466,92.221,808.041
3043,0,0,0,484.557,91.946,807.335
3044,0,0,0,484.748,91.576,806.226
3045,0,0,0,485.082,91.155,804.671
3046,0,0,0,485.426,90.675,802.638
3047,0,0,0,485.833,90.045,800.084
3048,0,0,0,486.460,89.267,796.798
3049,0,0,0,487.152,88.282,792.706
3050,0,0,0,487.721,87.175,787.635
3051,0,0,0,488.222,86.094,781.387
3052,0,0,0,488.485,85.018,773.874
3053,0,0,0,488.250,84.022,765.132
3054,0,0,0,487.812,83.126,755.043
3055,0,0,0,487.129,82.334,743.837
3056,0,0,0,486.474,81.579,731.564
3057,0,0,0,486.002,80.885,718.346
3058,0,0,0,485.893,80.272,704.292
3059,0,0,0,485.984,79.655,689.494
3060,0,0,0,486.543,79.097,673.958
3061,0,0,0,487.390,78.768,657.848
3062,0,0,0,488.398,78.765,641.143
3063,0,0,0,489.655,79.168,623.865
3064,0,0,0,491.052,79.970,606.212
3065,0,0,0,492.864,81.167,588.131
3066,0,0,0,495.198,82.622,569.746
3067,0,0,0,498.198,84.238,551.027
3068,0,0,0,501.810,86.025,532.049
3069,0,0,0,505.787,88.238,512.916
3070,0,0,0,509.922,91.031,493.800
3071,0,0,0,514.081,94.520,474.706
3072,0,0,0,518.414,98.561,455.551
3073,0,0,0,522.898,103.010,436.352
3074,0,0,0,527.972,107.829,417.054
3075,0,0,0,533.500,112.969,397.834
3076,0,0,0,539.426,118.503,378.700
3077,0,0,0,545.450,124.466,359.912
3078,0,0,0,551.460,130.921,341.512
3079,0,0,0,557.238,137.816,323.687
3080,0,0,0,562.988,145.201,306.178
3081,0,0,0,568.632,152.889,289.093
3082,0,0,0,574.408,161.011,272.371
3083,0,0,0,580.346,169.493,256.211
3084,0,0,0,586.660,178.221,240.567
3085,0,0,0,593.186,186.994,225.595
3086,0,0,0,599.893,195.664,211.276
3087,0,0,0,606.657,204.168,197.638
3088,0,0,0,613.165,212.621,184.858
3089,0,0,0,619.570,221.099,172.686
3090,0,0,0,625.560,229.601,161.335
3091,0,0,0,631.172,238.087,150.901
3092,0,0,0,636.626,246.415,141.075
3093,0,0,0,642.235,254.420,131.898
3094,0,0,0,648.093,262.041,123.325
3095,0,0,0,654.066,269.203,115.366
3096,0,0,0,660.026,275.993,108.001
3097,0,0,0,665.653,282.473,101.299
3098,0,0,0,670.941,288.695,95.211
3099,0,0,0,675.830,294.746,89.569
3100,0,0,0,680.146,300.645,84.499
3101,0,0,0,684.144,306.493,79.719
3102,0,0,0,688.073,312.230,75.108
3103,0,0,0,692.016,317.853,70.776
3104,0,0,0,695.940,323.341,66.619
3105,0,0,0,699.681,328.551,62.957
3106,0,0,0,703.397,333.596,59.543
3107,0,0,0,707.085,338.305,56.378
3108,0,0,0,710.695,342.884,53.313
3109,0,0,0,714.121,347.262,50.396
3110,0,0,0,717.123,351.609,47.597
3111,0,0,0,719.760,355.994,44.875
3112,0,0,0,721.945,360.447,42.345
3113,0,0,0,723.847,365.045,39.835
3114,0,0,0,725.474,369.669,37.446
3115,0,0,0,726.925,374.219,35.344
3116,0,0,0,728.538,378.647,33.268
3117,0,0,0,730.167,382.765,31.334
3118,0,0,0,732.118,386.524,29.466
3119,0,0,0,734.205,390.002,27.686
3120,0,0,0,736.238,393.094,26.061
3121,0,0,0,738.053,396.033,24.510
3122,0,0,0,739.565,398.786,23.124
3123,0,0,0,740.500,401.330,22.078
3124,0,0,0,741.318,403.779,21.061
3125,0,0,0,741.794,406.012,20.262
3126,0,0,0,742.313,408.037,19.586
3127,0,0,0,742.861,409.840,19.039
3128,0,0,0,743.416,411.292,18.594
3129,0,0,0,744.027,412.484,18.257
3130,0,0,0,744.693,413.453,17.849
3131,0,0,0,745.218,414.233,17.629
3132,0,0,0,745.474,414.826,17.507
3133,0,0,0,745.488,415.309,17.460
3134,0,0,0,745.454,415.749,17.456
3135,0,0,0,745.275,416.127,17.477
3136,0,0,0,744.975,416.342,17.647
3137,0,0,0,744.751,416.449,17.822
3138,0,0,0,744.501,416.415,18.064
3139,0,0,0,744.293,416.208,18.397
3140,0,0,0,743.998,415.879,18.879
3141,0,0,0,743.820,415.497,19.245
3142,0,0,0,743.601,415.035,19.672
3143,0,0,0,743.312,414.517,20.160
3144,0,0,0,742.893,413.988,20.679
3145,0,0,0,742.416,413.492,21.187
3146,0,0,0,741.959,413.124,21.605
3147,0,0,0,741.374,412.681,22.172
3148,0,0,0,740.811,412.266,22.700
3149,0,0,0,740.219,411.786,23.256
3150,0,0,0,739.835,411.399,23.651
3151,0,0,0,739.377,410.917,24.096
3152,0,0,0,738.854,410.393,24.669
3153,0,0,0,738.586,409.953,24.947
3154,0,0,0,738.242,409.507,25.290
3155,0,0,0,737.908,409.112,25.667
3156,0,0,0,737.466,408.783,26.011
3157,0,0,0,737.093,408.574,26.204
3158,0,0,0,736.645,408.395,26.430
3159,0,0,0,736.175,408.278,26.637
3160,0,0,0,735.723,408.162,26.846
3161,0,0,0,735.419,408.059,26.954
3162,0,0,0,735.172,407.935,27.007
3163,0,0,0,734.826,407.766,27.185
3164,0,0,0,734.538,407.614,27.277
3165,0,0,0,734.171,407.467,27.441
3166,0,0,0,733.830,407.310,27.498
3167,0,0,0,733.554,407.196,27.543
3168,0,0,0,733.191,407.125,27.641
3169,0,0,0,732.849,407.107,27.689
3170,0,0,0,732.346,407.061,27.871
3171,0,0,0,731.980,407.140,27.895
3172,0,0,0,731.633,407.222,27.922
3173,0,0,0,731.303,407.330,27.938
3174,0,0,0,730.955,407.424,28.044
3175,0,0,0,730.695,407.651,28.026
3176,0,0,0,730.531,407.850,27.978
3177,0,0,0,730.413,408.066,27.927
3178,0,0,0,730.281,408.280,27.847
3179,0,0,0,730.213,408.563,27.742
3180,0,0,0,730.122,408.844,27.591
3181,0,0,0,729.970,409.057,27.509
3182,0,0,0,729.795,409.267,27.453
3183,0,0,0,729.784,409.505,27.306
3184,0,0,0,729.659,409.695,27.253
3185,0,0,0,729.689,409.962,27.068
3186,0,0,0,729.664,410.174,26.976
3187,0,0,0,729.666,410.401,26.807
3188,0,0,0,729.634,410.587,26.711
3189,0,0,0,729.505,410.777,26.687
3190,0,0,0,729.441,411.010,26.505
3191,0,0,0,729.288,411.298,26.386
3192,0,0,0,729.126,411.611,26.239
3193,0,0,0,728.825,411.885,26.221
3194,0,0,0,728.668,412.300,26.039
3195,0,0,0,728.460,412.596,25.966
3196,0,0,0,728.313,412.936,25.836
3197,0,0,0,728.235,413.231,25.724
3198,0,0,0,728.159,413.477,25.636
3199,0,0,0,728.135,413.702,25.522
3200,0,0,0,728.051,413.858,25.477
3201,0,0,0,728.022,414.020,25.437
3202,0,0,0,727.994,414.181,25.325
3203,0,0,0,727.931,414.390,25.229
3204,0,0,0,727.904,414.589,25.084
3205,0,0,0,727.915,414.856,24.969
3206,0,0,0,727.947,415.137,24.763
3207,0,0,0,727.989,415.419,24.617
3208,0,0,0,727.995,415.760,24.421
3209,0,0,0,728.059,416.057,24.255
3210,0,0,0,728.032,416.371,24.112
3211,0,0,0,727.940,416.653,23.961
3212,0,0,0,727.826,416.959,23.824
3213,0,0,0,727.686,417.237,23.755
3214,0,0,0,727.555,417.541,23.588
3215,0,0,0,727.452,417.784,23.483
3216,0,0,0,727.365,418.042,23.387
3217,0,0,0,727.298,418.277,23.307
3218,0,0,0,727.244,418.500,23.204
3219,0,0,0,727.093,418.675,23.199
3220,0,0,0,726.964,418.777,23.159
3221,0,0,0,726.871,418.946,23.107
3222,0,0,0,726.708,419.070,23.096
3223,0,0,0,726.590,419.211,23.083
3224,0,0,0,726.441,419.324,23.050
3225,0,0,0,726.346,419.454,23.031
3226,0,0,0,726.253,419.547,23.016
3227,0,0,0,726.214,419.683,23.002
3228,0,0,0,726.127,419.725,22.983
3229,0,0,0,726.038,419.755,23.057
3230,0,0,0,725.955,419.836,23.050
3231,0,0,0,725.838,419.850,23.128
3232,0,0,0,725.777,419.933,23.166
3233,0,0,0,725.693,419.951,23.203
3234,0,0,0,725.719,420.029,23.255
3235,0,0,0,725.568,420.015,23.386
3236,0,0,0,725.539,420.051,23.437
3237,0,0,0,725.395,420.024,23.531
3238,0,0,0,725.287,420.052,23.604
3239,0,0,0,725.073,420.070,23.681
3240,0,0,0,724.820,420.046,23.788
3241,0,0,0,724.702,420.111,23.769
3242,0,0,0,724.531,420.145,23.801
3243,0,0,0,724.278,420.121,23.980
3244,0,0,0,724.194,420.139,24.018
3245,0,0,0,724.096,420.130,24.038
3246,0,0,0,723.917,420.100,24.172
3247,0,0,0,723.693,420.003,24.334
3248,0,0,0,723.518,419.935,24.472
3249,0,0,0,723.402,419.962,24.530
3250,0,0,0,723.207,419.919,24.655
3251,0,0,0,723.020,419.914,24.834
3252,0,0,0,722.801,419.918,24.961
3253,0,0,0,722.692,419.996,25.009
3254,0,0,0,722.565,420.048,25.067
3255,0,0,0,722.366,420.092,25.163
3256,0,0,0,722.208,420.115,25.246
3257,0,0,0,722.090,420.180,25.299
3258,0,0,0,721.940,420.229,25.384
3259,0,0,0,721.693,420.282,25.542
3260,0,0,0,721.487,420.325,25.622
3261,0,0,0,721.329,420.399,25.680
3262,0,0,0,721.220,420.477,25.728
3263,0,0,0,721.110,420.581,25.764
3264,0,0,0,721.005,420.660,25.783
3265,0,0,0,720.915,420.803,25.787
3266,0,0,0,720.797,420.919,25.888
3267,0,0,0,720.571,421.062,25.961
3268,0,0,0,720.440,421.189,26.011
3269,0,0,0,720.341,421.357,25.987
3270,0,0,0,720.211,421.560,26.044
3271,0,0,0,720.152,421.745,26.003
3272,0,0,0,720.137,421.921,26.002
3273,0,0,0,720.157,422.063,25.993
3274,0,0,0,720.048,422.116,26.053
3275,0,0,0,720.018,422.227,26.067
3276,0,0,0,719.958,422.348,26.072
3277,0,0,0,719.855,422.414,26.084
3278,0,0,0,719.788,422.497,26.106
3279,0,0,0,719.603,422.568,26.220
3280,0,0,0,719.513,422.686,26.237
3281,0,0,0,719.473,422.809,26.244
3282,0,0,0,719.393,422.941,26.255
3283,0,0,0,719.374,423.091,26.222
3284,0,0,0,719.319,423.175,26.232
3285,0,0,0,719.231,423.281,26.240
3286,0,0,0,719.196,423.354,26.243
3287,0,0,0,719.133,423.386,26.262
3288,0,0,0,719.045,423.428,26.317
3289,0,0,0,719.056,423.505,26.266
3290,0,0,0,719.018,423.616,26.264
3291,0,0,0,718.990,423.689,26.282
3292,0,0,0,718.933,423.773,26.292
3293,0,0,0,718.920,423.847,26.268
3294,0,0,0,718.944,423.939,26.255
3295,0,0,0,718.900,424.074,26.270
3296,0,0,0,718.899,424.151,26.233
3297,0,0,0,718.919,424.241,26.249
3298,0,0,0,718.969,424.348,26.233
3299,0,0,0,719.009,424.454,26.230
3300,0,0,0,719.041,424.558,26.212
3301,0,0,0,719.083,424.677,26.189
3302,0,0,0,719.084,424.830,26.158
3303,0,0,0,719.146,424.963,26.116
3304,0,0,0,719.188,425.094,26.072
3305,0,0,0,719.253,425.227,26.002
3306,0,0,0,719.284,425.319,26.004
3307,0,0,0,719.366,425.467,25.943
3308,0,0,0,719.380,425.570,25.924
3309,0,0,0,719.447,425.691,25.918
3310,0,0,0,719.538,425.777,25.917
3311,0,0,0,719.551,425.854,25.910
3312,0,0,0,719.627,425.989,25.898
3313,0,0,0,719.664,426.069,25.864
3314,0,0,0,719.714,426.201,25.836
3315,0,0,0,719.787,426.335,25.780
3316,0,0,0,719.870,426.457,25.732
3317,0,0,0,719.955,426.567,25.675
3318,0,0,0,720.045,426.691,25.642
3319,0,0,0,720.098,426.823,25.585
3320,0,0,0,720.165,426.931,25.527
3321,0,0,0,720.214,427.051,25.519
3322,0,0,0,720.299,427.161,25.462
3323,0,0,0,720.380,427.270,25.434
3324,0,0,0,720.465,427.419,25.345
3325,0,0,0,720.487,427.472,25.365
3326,0,0,0,720.602,427.585,25.297
3327,0,0,0,720.662,427.680,25.216
3328,0,0,0,720.757,427.778,25.166
3329,0,0,0,720.833,427.875,25.115
3330,0,0,0,720.882,427.930,25.080
3331,0,0,0,720.955,428.014,25.049
3332,0,0,0,721.067,428.075,24.962
3333,0,0,0,721.175,428.099,24.937
3334,0,0,0,721.208,428.127,24.884
3335,0,0,0,721.309,428.188,24.810
3336,0,0,0,721.374,428.283,24.773
3337,0,0,0,721.455,428.342,24.697
3338,0,0,0,721.584,428.367,24.572
3339,0,0,0,721.729,428.292,24.556
3340,0,0,0,721.877,428.090,24.575
3341,0,0,0,722.055,427.662,24.605
3342,0,0,0,722.117,427.006,24.775
3343,0,0,0,722.067,426.200,24.945
3344,0,0,0,721.505,425.179,25.336
3345,0,0,0,720.642,424.028,25.823
3346,0,0,0,719.247,422.648,26.624
3347,0,0,0,717.572,421.063,27.487
3348,0,0,0,715.620,419.084,28.521
3349,0,0,0,713.286,416.435,29.905
3350,0,0,0,710.567,413.006,31.808
3351,0,0,0,707.422,408.543,34.292
3352,0,0,0,703.546,402.925,37.622
3353,0,0,0,699.233,396.416,41.620
3354,0,0,0,694.104,388.841,46.641
3355,0,0,0,688.573,380.552,52.347
3356,0,0,0,682.652,371.527,58.861
3357,0,0,0,676.276,361.824,66.227
3358,0,0,0,669.666,351.567,74.349
3359,0,0,0,662.768,340.781,83.352
3360,0,0,0,655.611,329.510,93.193
3361,0,0,0,648.074,317.783,104.027
3362,0,0,0,640.369,305.832,115.717
3363,0,0,0,632.425,293.700,128.314
3364,0,0,0,624.389,281.452,141.764
3365,0,0,0,616.456,269.187,156.041
3366,0,0,0,608.589,256.865,171.106
3367,0,0,0,600.828,244.578,186.997
3368,0,0,0,593.204,232.440,203.645
3369,0,0,0,585.767,220.447,221.050
3370,0,0,0,578.527,208.711,239.227
3371,0,0,0,571.592,197.360,257.931
3372,0,0,0,564.862,186.406,277.229
3373,0,0,0,558.587,175.923,296.867
3374,0,0,0,552.734,165.934,316.810
3375,0,0,0,547.324,156.407,336.945
3376,0,0,0,542.188,147.424,357.385
3377,0,0,0,537.451,138.979,377.913
3378,0,0,0,533.049,131.143,398.539
3379,0,0,0,529.093,123.922,419.133
3380,0,0,0,525.500,117.253,439.636
3381,0,0,0,522.429,111.152,459.959
3382,0,0,0,519.657,105.588,480.087
3383,0,0,0,517.271,100.575,499.958
3384,0,0,0,515.312,96.127,519.505
3385,0,0,0,513.750,92.179,538.649
3386,0,0,0,512.486,88.769,557.387
3387,0,0,0,511.591,85.843,575.598
3388,0,0,0,510.975,83.389,593.254
3389,0,0,0,510.605,81.318,610.280
3390,0,0,0,510.544,79.586,626.544
3391,0,0,0,510.640,78.261,641.987
3392,0,0,0,510.838,77.214,656.510
3393,0,0,0,511.117,76.463,670.060
3394,0,0,0,511.450,75.907,682.640
3395,0,0,0,511.861,75.450,694.208
3396,0,0,0,512.314,75.017,704.791
3397,0,0,0,512.856,74.605,714.413
3398,0,0,0,513.494,74.267,723.159
3399,0,0,0,514.112,73.953,731.095
3400,0,0,0,514.744,73.711,738.304
3401,0,0,0,515.323,73.489,744.807
3402,0,0,0,515.886,73.273,750.601
3403,0,0,0,516.415,73.050,755.760
3404,0,0,0,516.958,72.795,760.368
3405,0,0,0,517.480,72.524,764.415
3406,0,0,0,518.003,72.206,768.028
3407,0,0,0,518.551,71.818,771.139
3408,0,0,0,519.170,71.459,773.814
3409,0,0,0,519.641,71.074,776.228
3410,0,0,0,520.154,70.659,778.249
3411,0,0,0,520.655,70.211,780.063
3412,0,0,0,521.135,69.736,781.601
3413,0,0,0,521.657,69.264,783.030
3414,0,0,0,522.164,68.844,784.340
3415,0,0,0,522.589,68.467,785.616
3416,0,0,0,522.898,68.201,786.820
3417,0,0,0,523.253,67.972,787.932
3418,0,0,0,523.515,67.735,788.938
3419,0,0,0,523.840,67.526,789.746
3420,0,0,0,524.205,67.284,790.439
3421,0,0,0,524.552,67.016,791.002
3422,0,0,0,524.895,66.756,791.496
3423,0,0,0,525.242,66.471,791.854
3424,0,0,0,525.498,66.242,792.157
3425,0,0,0,525.622,66.022,792.341
3426,0,0,0,525.704,65.838,792.463
3427,0,0,0,525.769,65.585,792.518
3428,0,0,0,525.927,65.279,792.500
3429,0,0,0,526.117,64.969,792.419
3430,0,0,0,526.310,64.676,792.332
3431,0,0,0,526.459,64.399,792.222
3432,0,0,0,526.626,64.161,792.069
3433,0,0,0,526.742,63.972,791.891
3434,0,0,0,526.837,63.768,791.683
3435,0,0,0,526.940,63.534,791.424
3436,0,0,0,527.032,63.301,791.123
3437,0,0,0,527.087,63.048,790.849
3438,0,0,0,527.103,62.816,790.644
3439,0,0,0,527.105,62.649,790.445
3440,0,0,0,526.984,62.569,790.283
3441,0,0,0,526.759,62.603,790.210
3442,0,0,0,526.584,62.615,790.112
3443,0,0,0,526.468,62.604,790.024
3444,0,0,0,526.412,62.508,789.921
3445,0,0,0,526.387,62.394,789.849
3446,0,0,0,526.382,62.314,789.820
3447,0,0,0,526.287,62.277,789.833
3448,0,0,0,526.129,62.296,789.844
3449,0,0,0,525.917,62.299,789.780
3450,0,0,0,525.647,62.332,789.688
3451,0,0,0,525.377,62.341,789.544
3452,0,0,0,525.108,62.353,789.348
3453,0,0,0,524.774,62.407,789.238
3454,0,0,0,524.444,62.463,789.137
3455,0,0,0,524.098,62.581,789.085
3456,0,0,0,523.748,62.669,788.990
3457,0,0,0,523.390,62.717,788.856
3458,0,0,0,523.127,62.690,788.688
3459,0,0,0,522.898,62.634,788.580
3460,0,0,0,522.721,62.553,788.483
3461,0,0,0,522.554,62.508,788.452
3462,0,0,0,522.369,62.471,788.451
3463,0,0,0,522.115,62.502,788.462
3464,0,0,0,521.875,62.531,788.449
3465,0,0,0,521.626,62.537,788.391
3466,0,0,0,521.443,62.500,788.248
3467,0,0,0,521.252,62.450,788.141
3468,0,0,0,521.131,62.419,788.033
3469,0,0,0,520.927,62.367,787.935
3470,0,0,0,520.768,62.351,787.787
3471,0,0,0,520.582,62.306,787.654
3472,0,0,0,520.393,62.242,787.500
3473,0,0,0,520.209,62.180,787.355
3474,0,0,0,520.004,62.128,787.181
3475,0,0,0,519.789,62.138,787.048
3476,0,0,0,519.540,62.190,786.953
3477,0,0,0,519.309,62.249,786.899
3478,0,0,0,519.022,62.254,786.881
3479,0,0,0,518.818,62.251,786.837
3480,0,0,0,518.621,62.259,786.807
3481,0,0,0,518.425,62.282,786.824
3482,0,0,0,518.244,62.300,786.851
3483,0,0,0,518.037,62.361,786.924
3484,0,0,0,517.888,62.446,786.977
3485,0,0,0,517.663,62.525,787.086
3486,0,0,0,517.470,62.612,787.212
3487,0,0,0,517.289,62.683,787.334
3488,0,0,0,517.067,62.764,787.519
3489,0,0,0,516.880,62.864,787.675
3490,0,0,0,516.737,62.920,787.837
3491,0,0,0,516.627,62.967,787.945
3492,0,0,0,516.485,62.963,788.022
3493,0,0,0,516.345,62.964,788.073
3494,0,0,0,516.092,63.015,788.188
3495,0,0,0,515.855,63.071,788.253
3496,0,0,0,515.602,63.147,788.302
3497,0,0,0,515.368,63.219,788.362
3498,0,0,0,515.134,63.241,788.420
3499,0,0,0,514.961,63.272,788.410
3500,0,0,0,514.742,63.300,788.433
3501,0,0,0,514.522,63.371,788.469
3502,0,0,0,514.301,63.417,788.503
3503,0,0,0,514.073,63.451,788.524
3504,0,0,0,513.869,63.506,788.540
3505,0,0,0,513.659,63.534,788.555
3506,0,0,0,513.414,63.594,788.525
3507,0,0,0,513.097,63.670,788.521
3508,0,0,0,512.762,63.717,788.499
3509,0,0,0,512.435,63.784,788.497
3510,0,0,0,512.143,63.851,788.454
3511,0,0,0,511.865,63.874,788.442
3512,0,0,0,511.663,63.934,788.431
3513,0,0,0,511.392,63.975,788.490
3514,0,0,0,511.157,64.007,788.578
3515,0,0,0,510.951,64.082,788.698
3516,0,0,0,510.754,64.114,788.797
3517,0,0,0,510.534,64.162,788.923
3518,0,0,0,510.395,64.221,788.967
3519,0,0,0,510.145,64.268,789.118
3520,0,0,0,509.987,64.322,789.213
3521,0,0,0,509.822,64.376,789.315
3522,0,0,0,509.659,64.407,789.441
3523,0,0,0,509.518,64.461,789.511
3524,0,0,0,509.455,64.483,789.569
3525,0,0,0,509.362,64.529,789.653
3526,0,0,0,509.251,64.510,789.711
3527,0,0,0,509.174,64.554,789.754
3528,0,0,0,508.992,64.603,789.840
3529,0,0,0,508.779,64.674,789.936
3530,0,0,0,508.627,64.760,790.005
3531,0,0,0,508.448,64.867,790.084
3532,0,0,0,508.323,64.893,790.113
3533,0,0,0,508.212,64.939,790.145
3534,0,0,0,508.120,64.948,790.205
3535,0,0,0,508.017,64.998,790.337
3536,0,0,0,507.946,65.046,790.480
3537,0,0,0,507.843,65.097,790.688
3538,0,0,0,507.791,65.180,790.889
3539,0,0,0,507.757,65.227,791.043
3540,0,0,0,507.709,65.279,791.186
3541,0,0,0,507.687,65.294,791.273
3542,0,0,0,507.604,65.292,791.437
3543,0,0,0,507.613,65.320,791.589
3544,0,0,0,507.582,65.349,791.806
3545,0,0,0,507.550,65.378,792.015
3546,0,0,0,507.490,65.396,792.250
3547,0,0,0,507.434,65.417,792.493
