Shimmer_CB1A_Timestamp_Unix_CAL;Shimmer_CB1A_EMG_CH1_24BIT_CAL;Shimmer_CB1A_EMG_CH2_24BIT_CAL;
ms;mV;mV;
1574178708802.28;-5.16551933672261;14.8905680446507;
1574178708818.91;-5.12441000832041;14.8828510303717;
1574178708835.54;-4.93345597586504;14.8085417121897;
1574178708852.17;-5.19737305609859;14.737357664588;
1574178708868.8;-5.35931015324316;14.6800450102542;
1574178708885.44;-5.36438270780039;14.4499529739165;
1574178708902.07;-5.03014703951045;14.4763254495055;
1574178708918.7;-5.10544201995238;14.5335659822106;
1574178708935.33;-4.99161004920126;14.7987091301333;
1574178708951.97;-4.824744640757;14.9743974178311;
1574178708968.6;-4.76180649937866;14.8909046122517;
1574178708985.23;-4.72925560425785;14.7062972831286;
1574178709001.86;-4.72884691502813;14.5791708921398;
1574178709018.49;-4.65797539448445;14.7196878655379;
1574178709035.13;-4.58823377945826;14.8875148956992;
1574178709051.76;-4.51863640768962;14.9167722364393;
1574178709068.39;-4.53034415209422;14.8469344592414;
1574178709085.02;-4.72807761765452;14.8065944282128;
1574178709101.65;-4.589604090405;14.8173886319862;
1574178709118.29;-4.65278263721259;14.8003919681381;
1574178709134.92;-4.53919107189072;14.818422375332;
1574178709151.55;-4.59929242920388;14.783034696146;
1574178709168.18;-4.58169475178259;14.7049510127248;
1574178709184.81;-4.52423785419121;14.6692508064807;
1574178709201.45;-4.49627870276913;14.6703326309124;
1574178709218.08;-4.57772806219992;14.7205533250833;
1574178709234.71;-4.48413822859187;14.7746926277509;
1574178709251.34;-4.49115806712604;14.7552678690673;
1574178709267.98;-4.54092199098134;14.7388481782494;
1574178709284.61;-4.52729100314272;14.7292800421651;
1574178709301.24;-4.49351404033272;14.7234141496914;
1574178709317.87;-4.44682730597186;14.7210100953988;
1574178709334.5;-4.49286494567374;14.6937000386357;
1574178709351.14;-4.48822512088916;14.6946376198098;
1574178709367.77;-4.46642034845595;14.6845646323241;
1574178709384.4;-4.45920818557837;14.6795641993957;
1574178709401.03;-4.49243221590108;14.6575430620761;
1574178709417.66;-4.38898575969367;14.6620146030602;
1574178709434.3;-4.46158819932797;14.6900218355682;
1574178709450.93;-4.43584077785501;14.6813431995722;
1574178709467.56;-4.44964004949411;14.6613895489442;
1574178709484.19;-4.4485822656054;14.6392241683671;
1574178709500.82;-4.4572368610585;14.6458833987574;
1574178709517.46;-4.4254552633113;14.6315552351739;
1574178709534.09;-4.46495387533751;14.6355700058424;
1574178709550.72;-4.44879863049173;14.626699045503;
1574178709567.35;-4.46670883497105;14.6199917340269;
1574178709583.98;-4.45161137401399;14.6270836941898;
1574178709600.62;-4.49560556756722;14.6060722596732;
1574178709617.25;-4.45014490089554;14.5974897858488;
1574178709633.88;-4.42543122276837;14.5847002170126;
1574178709650.51;-4.46937733523576;14.6067453948751;
1574178709667.14;-4.44615417076995;14.599364948197;
1574178709683.78;-4.46096314521191;14.5786179596525;
1574178709700.41;-4.46341528059029;14.5770553243624;
1574178709717.04;-4.43665815631447;14.5572459169919;
1574178709733.67;-4.47918587674926;14.5809739328592;
1574178709750.31;-4.42223383055931;14.5592412820547;
1574178709766.94;-4.45000065763799;14.5466680781048;
1574178709783.57;-4.49627870276913;14.5334938605818;
1574178709800.2;-4.42245019544564;14.5476056592789;
1574178709816.83;-4.44216344064436;14.5278683735373;
1574178709833.47;-4.45327017147583;14.5226275351796;
1574178709850.1;-4.43204237207282;14.5145739532996;
1574178709866.73;-4.47990709303702;14.5328207253799;
1574178709883.36;-4.42615243905613;14.5089244257122;
1574178709899.99;-4.46379992927709;14.5020969115214;
1574178709916.63;-4.46125163172702;14.4958944514467;
1574178709933.26;-4.41268973501798;14.49707243805;
1574178709949.89;-4.44992853600922;14.492576856523;
1574178709966.52;-4.47488261956564;14.4827683150095;
1574178709983.15;-4.51303496118803;14.478729503798;
1574178709999.79;-4.43153752067139;14.476806260364;
1574178710016.42;-4.46113142901239;14.4674544891661;
1574178710033.05;-4.47627697105531;14.4650504348736;
1574178710049.68;-4.51606406959662;14.4521166227798;
1574178710066.31;-4.4160313704846;14.4563237177917;
1574178710082.95;-4.53589751750996;14.4332207560405;
1574178710099.58;-4.49692779742811;14.4387019998275;
1574178710116.21;-4.49565364865307;14.4435101084125;
1574178710132.84;-4.47805597123178;14.4345910669872;
1574178710149.48;-4.44579356262607;14.4300233638314;
1574178710166.11;-4.54873516743205;14.423075646926;
1574178710182.74;-4.52301178650202;14.4130026594404;
1574178710199.37;-4.48094083638281;14.4138200378998;
1574178710216.0;-4.45625119879856;14.4039874558434;
1574178710232.64;-4.50594300102508;14.3899958598609;
1574178710249.27;-4.51228970435735;14.402833509783;
1574178710265.9;-4.46702136202908;14.3932172926129;
1574178710282.53;-4.48370549881921;14.3735280879571;
1574178710299.16;-4.52159339446943;14.3746579934746;
1574178710315.8;-4.52010288080806;14.3765812369086;
1574178710332.43;-4.48858572903304;14.3806921697488;
1574178710349.06;-4.43560037242576;14.3569641538816;
1574178710365.69;-4.54664364019755;14.3549447482758;
1574178710382.32;-4.50180802764194;14.3502087613196;
1574178710398.96;-4.48286407981683;14.3439101390732;
1574178710415.59;-4.51786711031601;14.3379240438848;
1574178710432.22;-4.54539353196544;14.3368181789102;
1574178710448.85;-4.52207420532793;14.3296300565755;
1574178710465.48;-4.52197804315623;14.3238603262735;
1574178710482.12;-4.52962293580647;14.3164077579667;
1574178710498.75;-4.4803638633526;14.3118400548109;
1574178710515.38;-4.57717512971264;14.2918142825541;
1574178710532.01;-4.50019731126594;14.290564174322;
1574178710548.65;-4.55609157356718;14.3011420132091;
1574178710565.28;-4.53366174701791;14.2888092146884;
1574178710581.91;-4.50611128482556;14.2733271050446;
1574178710598.54;-4.55392792470391;14.2544552788482;
1574178710615.17;-4.50623148754018;14.2780630920009;
1574178710631.81;-4.56854457480247;14.2625088607282;
1574178710648.44;-4.54815819440184;14.2512819271821;
1574178710665.07;-4.48067639041063;14.262244414756;
1574178710681.7;-4.53433488221982;14.2466180618546;
1574178710698.33;-4.56376050676034;14.2338044524754;
1574178710714.97;-4.51635255611172;14.2460410888244;
1574178710731.6;-4.52241077292889;14.2375066960859;
1574178710748.23;-4.54544161305129;14.227193303171;
1574178710764.86;-4.58114181929531;14.2216399377553;
1574178710781.49;-4.53709954465622;14.2216399377553;
1574178710798.13;-4.54560989685177;14.2235631811893;
1574178710814.76;-4.58491618453457;14.2143556532489;
1574178710831.39;-4.50471693333589;14.2136103964182;
1574178710848.02;-4.60104738883742;14.2033450845891;
1574178710864.65;-4.59474876659101;14.21272089633;
1574178710881.29;-4.55611561411011;14.2021670979858;
1574178710897.92;-4.5189970158335;14.1761071494548;
1574178710914.55;-4.49373040521905;14.1843770962211;
1574178710931.18;-4.63215585138271;14.1974791921154;
1574178710947.82;-4.56671749354015;14.189233285892;
1574178710964.45;-4.5738094537031;14.1749772439373;
1574178710981.08;-4.50353894673255;14.1759869467402;
1574178710997.71;-4.64304621732786;14.1632454589898;
1574178711014.34;-4.56472212847735;14.1594470532076;
1574178711030.98;-4.57501148084936;14.171539446299;
1574178711047.61;-4.53729186899963;14.1589181612632;
1574178711064.24;-4.65343173187157;14.1385558214055;
1574178711080.87;-4.55169215421186;14.1485566872625;
1574178711097.5;-4.63489647327619;14.1474508222879;
1574178711114.14;-4.58349779250198;14.1403107810391;
1574178711130.77;-4.54303755875876;14.1422340244731;
1574178711147.4;-4.61066360600753;14.1393251187792;
1574178711164.03;-4.63477627056157;14.1307186044119;
1574178711180.66;-4.62641016162358;14.1227852252466;
1574178711197.3;-4.52714675988516;14.1216312791862;
1574178711213.93;-4.5535432760171;14.1217034008149;
1574178711230.56;-4.65045070454884;14.1243238199938;
1574178711247.19;-4.60373992964505;14.1192512654366;
1574178711263.82;-4.58859438760214;14.1034085476488;
1574178711280.46;-4.55652430333984;14.1052115883682;
1574178711297.09;-4.60881248420228;14.1112217240995;
1574178711313.72;-4.60794702465697;14.1000909527251;
1574178711330.35;-4.61648141739544;14.101100655528;
1574178711346.99;-4.58912327954649;14.094032735908;
1574178711363.62;-4.60172052403933;14.0868926946592;
1574178711380.25;-4.58222364372694;14.0909555464135;
1574178711396.88;-4.6375649735409;14.0881908839771;
1574178711413.51;-4.62561682370704;14.091123830214;
1574178711430.15;-4.56061119563713;14.0973262902887;
1574178711446.78;-4.62970371600434;14.0746079772243;
1574178711463.41;-4.6122502818406;14.0723241256464;
1574178711480.04;-4.64874382600115;14.0719875580455;
1574178711496.67;-4.60313891607192;14.0749205042824;
1574178711513.31;-4.6122502818406;14.0677564224906;
1574178711529.94;-4.60109546992327;14.0688142063794;
1574178711546.57;-4.61458221450435;14.0698719902681;
1574178711563.2;-4.64742159614026;14.065063881683;
1574178711579.83;-4.59989344277701;14.0558803942856;
1574178711596.47;-4.62278003964186;14.0593662730097;
1574178711613.1;-4.59376310433107;14.0530436102204;
1574178711629.73;-4.60056657797892;14.0559284753714;
1574178711646.36;-4.64912847468795;14.0491730828094;
1574178711662.99;-4.61436584961802;14.0489086368372;
1574178711679.63;-4.57407389967528;14.0441005282522;
1574178711696.26;-4.56311141210136;14.0448698256258;
1574178711712.89;-4.6488880692587;14.0523704750185;
1574178711729.52;-4.62616975619432;14.096605074001;
1574178711746.15;-4.56162089843999;14.0252767831417;
1574178711762.79;-4.54957658643443;14.0139056063381;
1574178711779.42;-4.63032877012039;14.0237862694803;
1574178711796.05;-4.63645910856634;14.0389558520662;
1574178711812.68;-4.6036918485592;14.0313590405018;
1574178711829.32;-4.62874209428733;14.0216947422458;
1574178711845.95;-4.60366780801628;14.058621016179;
1574178711862.58;-4.67006778757586;13.9861868603452;
1574178711879.21;-4.65552325910607;14.0175357283198;
1574178711895.84;-4.62568894533582;14.072131801303;
1574178711912.48;-4.62830936451467;13.9905622391576;
1574178711929.11;-4.60066274015062;14.0122468088762;
1574178711945.74;-4.63951225751785;13.9699835344136;
1574178711962.37;-4.65105171812197;14.0541735157379;
1574178711979.0;-4.64513774456236;13.9336101929677;
1574178711995.64;-4.64371935252977;13.9887832389812;
1574178712012.27;-4.76966775691522;13.9714980886179;
1574178712028.9;-4.62390994515935;13.8719462003644;
1574178712045.53;-4.64982565043278;13.9801046029851;
1574178712062.16;-4.65081131269272;13.9679881693508;
1574178712078.8;-4.74798318719664;13.9345718146847;
1574178712095.43;-4.74396841652812;13.8068203695798;
1574178712112.06;-4.62213094498288;13.9980388480074;
1574178712128.69;-4.51438123159185;13.7984302200989;
1574178712145.32;-4.47497878173734;14.0229929315638;
1574178712161.96;-4.25633004383207;13.6563025303248;
1574178712178.59;-4.22986140607135;14.2170481940565;
1574178712195.22;-4.19731051095055;14.0241949587101;
1574178712211.85;-4.08874341910006;14.2524118326996;
1574178712228.49;-4.4030013962191;13.9257489354311;
1574178712245.12;-4.45300572550365;14.0684535982355;
1574178712261.75;-4.2587340981246;14.2249815732219;
1574178712278.38;-4.1749047249442;13.896203108176;
1574178712295.01;-4.02765639952696;14.0568179754597;
1574178712311.65;-3.71640349027357;14.0429225416489;
1574178712328.28;-4.25327689488056;14.0321764189613;
1574178712344.91;-5.01129925385705;14.1440370651925;
1574178712361.54;-5.41602179400386;14.2739040780748;
1574178712378.17;-5.68219868527238;14.286068592795;
1574178712394.81;-5.66195654812931;14.5122660611788;
1574178712411.44;-5.61582274625573;15.0889986859558;
1574178712428.07;-5.57353543125019;14.913646965859;
1574178712444.7;-5.58709429746004;14.7804383175101;
1574178712461.33;-5.54009503604115;14.8040701712056;
1574178712477.97;-5.54752356380505;14.807483928301;
1574178712494.6;-5.46578571785916;14.4383173511407;
1574178712511.23;-5.45953517669859;14.4218736197798;
1574178712527.86;-5.38806264258178;14.3423955848689;
1574178712544.49;-5.32255216311043;14.2428436966153;
1574178712561.13;-5.33334636688388;14.1331707397903;
1574178712577.76;-5.30048294470504;14.2010371924683;
1574178712594.39;-5.25579157540698;14.2654898880509;
1574178712611.02;-5.2599025082472;14.3076570003419;
1574178712627.66;-5.27329309065657;14.3560265727075;
1574178712644.29;-5.26045544073448;14.4309849855485;
1574178712660.92;-5.26449425194592;14.3682872495994;
1574178712677.55;-5.25646471060889;14.3844665349881;
1574178712694.18;-5.23042880262083;14.4123776053243;
1574178712710.82;-5.21239839542688;14.4732482600111;
1574178712727.45;-5.21970672047616;14.3222496098975;
1574178712744.08;-5.22105299087997;14.3943471981304;
1574178712760.71;-5.1780685001296;14.3575892079976;
1574178712777.34;-5.16746662069956;14.4218976603227;
1574178712793.98;-5.14592629423852;14.4339179317853;
1574178712810.61;-5.14075757750959;14.4319225667225;
1574178712827.24;-5.14825822690227;14.4146133758164;
1574178712843.87;-5.15330674091658;14.4326197424674;
1574178712860.5;-5.15710514669877;14.4400963513171;
1574178712877.14;-5.1508546055382;14.4709884489761;
1574178712893.77;-5.1550376600072;14.4532705688402;
1574178712910.4;-5.15465301132039;14.5121698990071;
1574178712927.03;-5.14522911849369;14.4564920015922;
1574178712943.66;-5.16400478251832;14.4821673014363;
1574178712960.3;-5.17143331028223;14.5393837935985;
1574178712976.93;-5.18342954120193;14.4614203128918;
1574178712993.56;-5.17633758103898;14.5368114555055;
1574178713010.19;-5.1623700255994;14.5404415774872;
1574178713026.83;-5.18412671694677;14.5673429450206;
1574178713043.46;-5.17770789198572;14.5668380936191;
1574178713060.09;-5.18369398717411;14.5501299162861;
1574178713076.72;-5.19838275890145;14.5781611893369;
1574178713093.35;-5.19513728560654;14.603884570267;
1574178713109.99;-5.18936755530447;14.6330217082924;
1574178713126.62;-5.18371802771704;14.6229968018925;
1574178713143.25;-5.19429586660415;14.6676641306477;
1574178713159.88;-5.20403228648889;14.6074906517057;
1574178713176.51;-5.20648442186726;14.6378057763345;
1574178713193.15;-5.20343127291575;14.6963925794434;
1574178713209.78;-5.20480158386249;14.6287424916517;
1574178713226.41;-5.21602851740859;14.6571824539323;
1574178713243.04;-5.21766327432751;14.6809104697995;
1574178713259.67;-5.22946718090381;14.6881226326771;
1574178713276.31;-5.22756797801272;14.6931230656055;
1574178713292.94;-5.23511670849125;14.6961521740141;
1574178713309.57;-5.24305008765659;14.6924739709465;
1574178713326.2;-5.24057391173529;14.7067300129012;
1574178713342.83;-5.24502141217646;14.7304099476826;
1574178713359.47;-5.25230569668281;14.6999024987105;
1574178713376.1;-5.25583965649283;14.7613501264274;
1574178713392.73;-5.26040735964863;14.7419974893726;
1574178713409.36;-5.26269121122653;14.7520945174012;
1574178713425.99;-5.2692302389022;14.73605947527;
1574178713442.63;-5.28300546999838;14.7569507070721;
1574178713459.26;-5.29053015993398;14.7738512087486;
1574178713475.89;-5.28509699723287;14.7990937788201;
1574178713492.52;-5.28432769985927;14.794285670235;
1574178713509.16;-5.29584311992047;14.7814720608559;
1574178713525.79;-5.28601053786403;14.8046231036929;
1574178713542.42;-5.29870394452857;14.838039458359;
1574178713559.05;-5.30000213384654;14.8278943492446;
1574178713575.68;-5.29365543051427;14.8257547409242;
1574178713592.32;-5.30036274199042;14.7889486697056;
1574178713608.95;-5.32098952782029;14.83484206615;
1574178713625.58;-5.33613506986321;14.8228458352303;
1574178713642.21;-5.33721689429485;14.8261874706969;
1574178713658.84;-5.33673608343634;14.8739560294894;
1574178713675.48;-5.35512709877417;14.8169799427565;
1574178713692.11;-5.3583004504403;14.8558775412096;
1574178713708.74;-5.35793984229642;14.8468142565267;
1574178713725.37;-5.35861297749833;14.8880197471006;
1574178713742.0;-5.36330088336876;14.9064107624385;
1574178713758.64;-5.3627719914244;14.8897747067342;
1574178713775.27;-5.36471927540135;14.9138873712882;
1574178713791.9;-5.35796388283935;14.9258836022079;
1574178713808.53;-5.37238820859451;14.9079493571857;
1574178713825.16;-5.36947930290055;14.9270375482683;
1574178713841.8;-5.37068133004681;14.9292973593033;
1574178713858.43;-5.36731565403728;14.9320379811968;
1574178713875.06;-5.37688379012153;14.9246815750617;
1574178713891.69;-5.38349493942598;14.941942684882;
1574178713908.33;-5.37940804712868;14.9637955384011;
1574178713924.96;-5.37813389835364;14.9853118243192;
1574178713941.59;-5.40092433304679;14.9768014721236;
1574178713958.22;-5.39015416981628;14.9796863372747;
1574178713974.85;-5.4081605364673;14.9643725114313;
1574178713991.49;-5.40945872578526;15.0190647465863;
1574178714008.12;-5.41277632070895;15.0196657601594;
1574178714024.75;-5.42496487597206;14.9456449284925;
1574178714041.38;-5.42563801117397;14.9787727966435;
1574178714058.01;-5.42253678113661;14.9709596201928;
1574178714074.65;-5.44237022904995;14.9436255228868;
1574178714091.28;-5.43054228193072;14.985047378347;
1574178714107.91;-5.41919514566999;15.0069723534948;
1574178714124.54;-5.43174430907698;14.9865619325513;
1574178714141.17;-5.43679282309129;14.9976686633828;
1574178714157.81;-5.44626479700384;15.0006496907055;
1574178714174.44;-5.45311635173754;15.0198340439599;
1574178714191.07;-5.45713112240606;15.0339698831999;
1574178714207.7;-5.45323655445217;15.060630845304;
1574178714224.33;-5.45458282485598;15.0848156314869;
1574178714240.97;-5.45306827065169;15.0492115874145;
1574178714257.6;-5.46275660945057;15.0344506940584;
1574178714274.23;-5.46482409614215;15.0521445336514;
1574178714290.86;-5.46523278537187;15.1088561744121;
1574178714307.5;-5.48340743582337;15.0500770469598;
1574178714324.13;-5.47739730009206;15.0994082410425;
1574178714340.76;-5.47864740832417;15.0718818193931;
1574178714357.39;-5.4747768809132;15.0961627677476;
1574178714374.02;-5.48708563889094;15.0742377925997;
1574178714390.66;-5.48597977391638;15.0899843482158;
1574178714407.29;-5.48614805771685;15.111789120649;
1574178714423.92;-5.49025899055707;15.1086638500687;
1574178714440.55;-5.49172546367551;15.1133036748533;
1574178714457.18;-5.50297643776454;15.0902007131021;
1574178714473.82;-5.49819236972241;15.1032306873676;
1574178714490.45;-5.49634124791717;15.1150826750298;
1574178714507.08;-5.50593342454435;15.1188089591832;
1574178714523.71;-5.49804812646486;15.1464796240902;
1574178714540.34;-5.51047708715722;15.1209726080464;
1574178714556.98;-5.50206289713338;15.1141450938557;
1574178714573.61;-5.51256861439172;15.1189532024407;
1574178714590.24;-5.51151083050301;15.1227996893088;
1574178714606.87;-5.50802495177884;15.1473931647213;
1574178714623.5;-5.50331300536549;15.1241459597126;
1574178714640.14;-5.51071749258647;15.1261894058612;
1574178714656.77;-5.51655934451731;15.1210206891323;
1574178714673.4;-5.51396296588138;15.1779486947793;
1574178714690.03;-5.51410720913894;15.1176790536657;
1574178714706.67;-5.51684783103242;15.1682363154375;
1574178714723.3;-5.51271285764927;15.1273673924646;
1574178714739.93;-5.51179931701811;15.1350363256577;
1574178714756.56;-5.51090981692988;15.146840232234;
1574178714773.19;-5.50833747883687;15.1681161127229;
1574178714789.83;-5.51518903357057;15.1122699315075;
1574178714806.46;-5.51764116894895;15.13686340692;
1574178714823.09;-5.50581322182972;15.1500857055289;
1574178714839.72;-5.52862769706579;15.1716741130758;
1574178714856.35;-5.51961249346882;15.125612432831;
1574178714872.99;-5.51516499302765;15.1869158172904;
1574178714889.62;-5.52838729163654;15.1145057019996;
1574178714906.25;-5.51215992516199;15.1537398680536;
1574178714922.88;-5.52865173760872;15.1335698525393;
1574178714939.51;-5.52341089925101;15.1460949754033;
1574178714956.15;-5.43042207921609;15.1448689077142;
1574178714972.78;-5.46605016383133;15.1435226373103;
1574178714989.41;-5.56742913334717;15.1509030839884;
1574178715006.04;-5.57317482310631;15.1673948964351;
1574178715022.67;-5.45588101417395;15.1036874576832;
1574178715039.31;-5.44674560786235;15.0997688491864;
1574178715055.94;-5.24333857417169;15.04712006018;
1574178715072.57;-5.02065102505497;15.1685969235814;
1574178715089.2;-5.11604389938242;15.3352940482252;
1574178715105.84;-4.95175082903117;15.1702797615862;
1574178715122.47;-5.06024579925288;14.876336043239;
1574178715139.1;-5.11356772346112;14.708749418507;
1574178715155.73;-5.27651452340856;14.760508707425;
1574178715172.36;-4.81993653217195;14.7367566510149;
1574178715189.0;-4.89588060727286;14.7550274636381;
1574178715205.63;-5.78521241170713;14.7940933458916;
1574178715222.26;-5.67852048220481;14.6964647010721;
1574178715238.89;-5.85613201333666;14.8522474192278;
1574178715255.52;-5.74931988111971;15.0991437950703;
1574178715272.16;-6.16238448966159;14.9157865741793;
1574178715288.79;-5.63880550529228;15.4409762749246;
1574178715305.42;-5.26288353556993;14.8808797058518;
1574178715322.05;-5.60692774537338;14.693603876464;
1574178715338.68;-5.6864057802843;14.4582710017686;
1574178715355.32;-5.67928977957842;14.6041730567821;
1574178715371.95;-5.71929324300606;14.6984841066779;
1574178715388.58;-5.60772108328991;14.6790353074513;
1574178715405.21;-5.47730113792036;14.8015459141985;
1574178715421.84;-5.45049593255869;14.8558535006666;
1574178715438.48;-5.46917543441162;14.7585614234481;
1574178715455.11;-5.48165247618983;14.6778332803051;
1574178715471.74;-5.45946305506981;14.6437918715229;
1574178715488.37;-5.3577234774101;14.6677122117335;
1574178715505.0;-5.39330348093949;14.7770486009576;
1574178715521.64;-5.25942169738869;14.9014343700529;
1574178715538.27;-5.29819909312714;14.9785564317572;
1574178715554.9;-5.21513901732036;14.9233353046579;
1574178715571.53;-5.23855450612956;14.7508924902549;
1574178715588.17;-5.16821187753024;14.5412108748608;
1574178715604.8;-5.22069238273609;14.646652696131;
1574178715621.43;-5.14244041551436;14.8175809563296;
1574178715638.06;-5.1868192577544;14.939370346789;
1574178715654.69;-5.13522825263678;14.9010256808232;
1574178715671.33;-5.13969979362088;14.7674804648734;
1574178715687.96;-5.12621304903981;14.647950885449;
1574178715704.59;-5.1509507677099;14.6289348159951;
1574178715721.22;-5.09755672187289;14.7007679582558;
1574178715737.85;-5.08707504515748;14.784645412522;
1574178715754.49;-5.04555702752555;14.8352747959226;
1574178715771.12;-5.1395315098204;14.8054404821524;
1574178715787.75;-5.0803436931384;14.7451468004958;
1574178715804.38;-5.04397035169248;14.6779294424768;
1574178715821.01;-5.05632719075607;14.6750205367828;
1574178715837.65;-5.02019425473939;14.7236545551206;
1574178715854.28;-5.02985855299535;14.7547630176659;
1574178715870.91;-5.01892010596436;14.7548591798376;
1574178715887.54;-5.00649114527199;14.7311792450562;
1574178715904.18;-4.98608072432845;14.685237767526;
1574178715920.81;-4.97970998045325;14.6742031583233;
1574178715937.44;-5.02137224134273;14.6902622409974;
1574178715954.07;-4.99420642783718;14.6902862815403;
1574178715970.7;-5.00451982075212;14.6883149570205;
1574178715987.34;-4.96427595189523;14.6811027941429;
1574178716003.97;-4.95004395048348;14.6647552249537;
1574178716020.6;-5.00512083432525;14.6604279272272;
1574178716037.23;-4.9976442254755;14.6474941151334;
1574178716053.86;-4.96891577667981;14.636988397875;
1574178716070.5;-4.99074458965595;14.6475181556763;
1574178716087.13;-4.94845727465041;14.6366999113599;
1574178716103.76;-4.96555010067027;14.6211937611731;
1574178716120.39;-4.9684349658213;14.6201600178274;
1574178716137.02;-4.98382091329347;14.6116256250889;
1574178716153.66;-4.95913127570922;14.6163135309593;
1574178716170.29;-4.88972622828399;14.6041730567821;
1574178716186.92;-5.01062611865514;14.5985716102805;
1574178716203.55;-4.95167870740239;14.5991485833107;
1574178716220.18;-4.91403121718143;14.6029710296358;
1574178716236.82;-4.94458674723944;14.5744349051835;
1574178716253.45;-4.94287986869175;14.5659485935309;
1574178716270.08;-4.93146061080225;14.5757090539585;
1574178716286.71;-4.92891231325217;14.5812143382884;
1574178716303.34;-4.91694012287539;14.5696508371414;
1574178716319.98;-4.88443730884043;14.5505386055158;
1574178716336.61;-4.92775836719176;14.5508270920309;
1574178716353.24;-4.93833620607887;14.5633041338091;
1574178716369.87;-4.90412651349622;14.5609481606024;
1574178716386.51;-4.89768364799225;14.5396001584848;
1574178716403.14;-4.92153186657411;14.5215937918338;
1574178716419.77;-4.90592955421562;14.5340467930691;
1574178716436.4;-4.89133694465998;14.5337823470969;
1574178716453.03;-4.89181775551849;14.5225794540937;
1574178716469.67;-4.87330653746603;14.5183242779959;
1574178716486.3;-4.95951592439603;14.5195022645993;
1574178716502.93;-4.88556721435792;14.5167135616199;
1574178716519.56;-4.90116952671642;14.505101979387;
1574178716536.19;-4.81209931517831;14.501568019577;
1574178716552.83;-4.94254330109079;14.5038999522408;
1574178716569.46;-4.85527613027209;14.506087641647;
1574178716586.09;-4.89777981016395;14.4988754787694;
1574178716602.72;-4.86135838763218;14.4893073426851;
1574178716619.35;-4.87929263265442;14.4819990176359;
1574178716635.99;-4.89042340402882;14.4870475316502;
1574178716652.62;-4.86866671268146;14.4817586122066;
1574178716669.25;-4.83320691186669;14.4698104623728;
1574178716685.88;-4.85330480575222;14.4684641919689;
1574178716702.51;-4.89996749957015;14.4670938810222;
1574178716719.15;-4.85515592755746;14.458799893713;
1574178716735.78;-4.87167178054712;14.4549053257591;
1574178716752.41;-4.8565262385042;14.4479095277678;
1574178716769.04;-4.86155071197558;14.449135595457;
1574178716785.68;-4.83748612850739;14.4477172034244;
1574178716802.31;-4.85979575234204;14.4432456624403;
1574178716818.94;-4.85705513044856;14.435312283275;
1574178716835.57;-4.9023955944056;14.4299993232885;
1574178716852.2;-4.84318373718068;14.4306724584904;
1574178716868.84;-4.86414709061151;14.4283645663696;
1574178716885.47;-4.87948495699783;14.4198542141741;
1574178716902.1;-4.8015214762912;14.4129305378116;
1574178716918.73;-4.90580935150099;14.4167289435938;
1574178716935.36;-4.85743977913536;14.412786294554;
1574178716952.0;-4.79378042146926;14.4097331456025;
1574178716968.63;-4.86734448282057;14.4149259028744;
1574178716985.26;-4.8568147250193;14.4036268476995;
1574178717001.89;-4.86412305006858;14.3991553067154;
1574178717018.52;-4.804478463071;14.3896112111741;
1574178717035.16;-4.78777028573795;14.3962944821073;
1574178717051.79;-4.88662499824663;14.3896833328029;
1574178717068.42;-4.84698214296287;14.3882889813132;
1574178717085.05;-4.82359069469659;14.3805479264913;
1574178717101.68;-4.7950545702443;14.3742733447878;
1574178717118.32;-4.83808714208052;14.3718692904952;
1574178717134.95;-4.83726976362106;14.3676381549404;
1574178717151.58;-4.82738910047878;14.3667726953951;
1574178717168.21;-4.80467078741441;14.3650417763045;
1574178717184.85;-4.80106470597562;14.3584787080859;
1574178717201.48;-4.81291669363777;14.351026139779;
1574178717218.11;-4.78853958311156;14.3489826936304;
1574178717234.74;-4.84823225119498;14.3507376532639;
1574178717251.37;-4.75755132328089;14.3496558288323;
1574178717268.01;-4.85222298132058;14.3456650987067;
1574178717284.64;-4.82323008655271;14.3425638686693;
1574178717301.27;-4.82421574881265;14.336890300539;
1574178717317.9;-4.80128107086194;14.3314811783808;
1574178717334.53;-4.81758055896527;14.3325870433554;
1574178717351.17;-4.76925906768549;14.3278991374849;
1574178717367.8;-4.8380631015376;14.3245094209325;
1574178717384.43;-4.79731438127928;14.326913475225;
1574178717401.06;-4.81368599101138;14.3136430955302;
1574178717417.69;-4.80681039573476;14.3351113003625;
1574178717434.33;-4.79926166525622;14.3172972580549;
1574178717450.96;-4.76661460796371;14.3143883523609;
1574178717467.59;-4.83219720906383;14.3048682973625;
1574178717484.22;-4.8018099628063;14.3114313655811;
1574178717500.85;-4.7952468945877;14.3119121764396;
1574178717517.49;-4.81758055896527;14.2981850264293;
1574178717534.12;-4.79130424554796;14.2903718499786;
1574178717550.75;-4.80897404459803;14.3041470810748;
1574178717567.38;-4.80310815212426;14.3023921214412;
1574178717584.02;-4.75589252581905;14.2951078369349;
1574178717600.65;-4.81183486920614;14.2893861877187;
1574178717617.28;-4.75055552528964;14.2940500530462;
1574178717633.91;-4.79082343468946;14.2798901732632;
1574178717650.54;-4.78531815035957;14.2906603364937;
1574178717667.18;-4.77274494640966;14.2833520114444;
1574178717683.81;-4.7948622459009;14.2672448476845;
1574178717700.44;-4.72694771213703;14.2624848201853;
1574178717717.07;-4.79755478670853;14.2686391991742;
1574178717733.7;-4.77822619019662;14.2690719289468;
1574178717750.34;-4.77423546007102;14.2682305099444;
1574178717766.97;-4.80315623321012;14.2612347119532;
1574178717783.6;-4.78777028573795;14.2644080636193;
1574178717800.23;-4.77062937863223;14.2815730112679;
1574178717816.86;-4.79498244861553;14.3514348290088;
1574178717833.5;-4.81659489670534;14.2096437068356;
1574178717850.13;-4.76750410805195;14.2010852735542;
1574178717866.76;-4.76637420253446;14.2273375464285;
1574178717883.39;-4.82597070844619;14.2733751861304;
1574178717900.02;-4.79493436752968;14.2080329904596;
1574178717916.66;-4.91585829844375;14.3940587116153;
1574178717933.29;-4.70930195362989;14.1835356772187;
1574178717949.92;-4.75209412003686;14.2052683280232;
1574178717966.55;-4.7720237301219;14.2375547771718;
1574178717983.18;-4.76637420253446;14.2743127673045;
1574178717999.82;-4.74464155173002;14.2490221161471;
1574178718016.45;-4.72870267177057;14.2234429784747;
1574178718033.08;-4.73302996949712;14.2026959899302;
1574178718049.71;-4.69711339836678;14.3289569213736;
1574178718066.35;-4.70769123725389;14.1751695682807;
1574178718082.98;-4.72074525206231;14.1387962268348;
1574178718099.61;-4.69285822226901;14.0861714783714;
1574178718116.24;-4.61619293088034;14.2828231195001;
1574178718132.87;-4.7354821048755;14.2588787387465;
1574178718149.51;-4.65436931304566;14.0951386008825;
1574178718166.14;-4.62674672922453;14.0699200713539;
1574178718182.77;-4.66424997618794;14.4015112799221;
1574178718199.4;-4.52868535463238;13.9225034621362;
1574178718216.03;-4.36157954075887;14.2427715749866;
1574178718232.67;-4.24830050249503;14.4068723209944;
1574178718249.3;-4.03729665723999;14.0825653969326;
1574178718265.93;-4.06602510603568;14.4927451403235;
1574178718282.56;-4.36869554146475;13.9861628198023;
1574178718299.19;-4.484739242165;14.1822615284437;
1574178718315.83;-4.38737504331768;14.3911978870071;
1574178718332.46;-4.02349738560089;14.173799257334;
1574178718349.09;-4.19180522662066;14.1398780512664;
1574178718365.72;-5.40529971185919;14.4630069887249;
1574178718382.35;-5.90250622063949;14.9553573078343;
1574178718398.99;-6.02468025978568;15.2469450529748;
1574178718415.62;-5.95873705054169;15.1041442279988;
1574178718432.25;-5.72814016280256;15.0917152673064;
1574178718448.88;-5.31154159445066;15.2029508594216;
1574178718465.52;-5.15210471377032;14.9748061070608;
1574178718482.15;-5.13251167128623;14.7791401281921;
1574178718498.78;-5.32534086608977;14.723534352406;
1574178718515.41;-5.45027956767236;14.5596740118274;
1574178718532.04;-5.44299528316601;14.6860551459855;
1574178718548.68;-5.43657645820496;14.5713577156891;
1574178718565.31;-5.36245946436637;14.5983071643083;
1574178718581.94;-5.29240532228215;14.679468037224;
1574178718598.57;-5.26971104976071;14.6912479032574;
1574178718615.2;-5.25583965649283;14.7258662850697;
1574178718631.84;-5.24398766883067;14.7940212242629;
1574178718648.47;-5.22838535647218;14.7924826295156;
1574178718665.1;-5.21802388247139;14.7438486111778;
1574178718681.73;-5.19242070425598;14.7903189806524;
1574178718698.36;-5.21073959796503;14.7035085801492;
1574178718715.0;-5.20417652974644;14.7275491230745;
1574178718731.63;-5.17258725634264;14.7859916829258;
1574178718748.26;-5.15756191701435;14.7390405025928;
1574178718764.89;-5.16443751229098;14.8054645226953;
1574178718781.52;-5.1600861740215;14.792362426801;
1574178718798.16;-5.16676944495473;14.8262836328686;
1574178718814.79;-5.13503592829338;14.8272452545856;
1574178718831.42;-5.1235445487751;14.8149364966078;
1574178718848.05;-5.11864027801835;14.7860878450975;
1574178718864.69;-5.11789502118767;14.8057049281245;
1574178718881.32;-5.11604389938242;14.8178454023018;
1574178718897.95;-5.12638133284028;14.8216918891698;
1574178718914.58;-5.13130964413996;14.8376067285864;
1574178718931.21;-5.14515699686491;14.8275337411007;
1574178718947.85;-5.13628603652549;14.8557573384949;
1574178718964.48;-5.13688705009862;14.8510213515387;
1574178718981.11;-5.12602072469641;14.850588621766;
1574178718997.74;-5.11020204745158;14.8650369880641;
1574178719014.37;-5.12140494045475;14.8312119441682;
1574178719031.01;-5.10649980384109;14.8603971632795;
1574178719047.64;-5.09116193745477;14.8854474090076;
1574178719064.27;-5.08274774743093;14.8940539233749;
1574178719080.9;-5.08483927466543;14.9318456568534;
1574178719097.53;-5.09467185672186;14.8885005579591;
1574178719114.17;-5.10005693833712;14.9263163319806;
1574178719130.8;-5.09034455899531;14.9405483333923;
1574178719147.43;-5.08647403158435;14.9391059008168;
1574178719164.06;-5.0935659917473;14.9634349302572;
1574178719180.69;-5.10193210068529;14.9478326178987;
1574178719197.33;-5.1053698983236;14.9487701990728;
1574178719213.96;-5.10484100637925;14.9736281204575;
1574178719230.59;-5.1049852496368;14.9693248632739;
1574178719247.22;-5.10577858755333;14.9927884331689;
1574178719263.86;-5.10510545235143;14.964132106002;
1574178719280.49;-5.10467272257877;14.9972118930672;
1574178719297.12;-5.10787011478783;14.9739887286014;
1574178719313.75;-5.10450443877829;14.9921874195958;
1574178719330.38;-5.10503333072265;15.0064915426363;
1574178719347.02;-5.10654788492694;14.9962262308073;
1574178719363.65;-5.10534585778068;15.0066357858939;
1574178719380.28;-5.09652297852711;15.033609275056;
1574178719396.91;-5.09560943789595;15.0207956656769;
1574178719413.54;-5.09729227590072;15.0046885019169;
1574178719430.18;-5.09943188422106;15.0240651795147;
1574178719446.81;-5.10719697958592;15.0360133293486;
1574178719463.44;-5.11087518265349;15.0142325974583;
1574178719480.07;-5.1024129115438;15.0370951537802;
1574178719496.7;-5.10743738501518;15.0325034100815;
1574178719513.34;-5.10486504692217;15.0455574248899;
1574178719529.97;-5.0979413705597;15.0497645199018;
1574178719546.6;-5.10085027625365;15.0271664095521;
1574178719563.23;-5.10149937091264;15.0468796547508;
1574178719579.86;-5.09734035698657;15.0486586549273;
1574178719596.5;-5.10541797940945;15.061616507564;
1574178719613.13;-5.10647576329817;15.0443553977436;
1574178719629.76;-5.09986461399372;15.0555342502039;
1574178719646.39;-5.10830284456049;15.0563997097492;
1574178719663.02;-5.10173977634189;15.0766178063493;
1574178719679.66;-5.10217250611454;15.0633714671975;
1574178719696.29;-5.09695570829976;15.07029514356;
1574178719712.92;-5.09926360042059;15.0665928999495;
1574178719729.55;-5.09084941039674;15.081233590591;
1574178719746.19;-5.0981336949031;15.0755600224606;
1574178719762.82;-5.0977490462163;15.1166933914057;
1574178719779.45;-5.10395150629101;15.0678910892675;
1574178719796.08;-5.09609024875445;15.0994322815854;
1574178719812.71;-5.10443231714952;15.0842146179137;
1574178719829.35;-5.09695570829976;15.0956819568891;
1574178719845.98;-5.1052737361519;15.0770024550361;
1574178719862.61;-5.10152341145556;15.0836857259694;
1574178719879.24;-5.09755672187289;15.1060193903469;
1574178719895.87;-5.11404853431962;15.0956338758032;
1574178719912.51;-5.11299075043091;15.1206841215313;
1574178719929.14;-5.11181276382757;15.092172037622;
1574178719945.77;-5.10573050646748;15.1062117146903;
1574178719962.4;-5.11921725104856;15.0916191051347;
1574178719979.03;-5.11448126409228;15.1062117146903;
1574178719995.67;-5.11767865630134;15.0984947004113;
1574178720012.3;-5.12724679238559;15.0998169302722;
1574178720028.93;-5.12380899474728;15.1153471210019;
1574178720045.56;-5.12311181900245;15.1146018641713;
1574178720062.19;-5.12679002207001;15.113063269424;
1574178720078.83;-5.132583792915;15.1155634858883;
1574178720095.46;-5.1370553338991;15.1134719586538;
1574178720112.09;-5.13998828013598;15.1218140270488;
1574178720128.72;-5.13292036051596;15.1170059184638;
1574178720145.36;-5.12578031926715;15.1255403112022;
1574178720161.99;-5.12457829212089;15.1298676089288;
1574178720178.62;-5.1301076169937;15.1301801359868;
1574178720195.25;-5.12474657592137;15.1187608780973;
1574178720211.88;-5.12585244089593;15.1373682583215;
1574178720228.52;-5.1256360760096;15.1206841215313;
1574178720245.15;-5.11335135857479;15.1374644204932;
1574178720261.78;-5.12368879203265;15.1241459597126;
1574178720278.41;-5.12645345446906;15.1260451626037;
1574178720295.04;-5.12775164378702;15.1483307458954;
1574178720311.68;-5.12698234641342;15.1361902717181;
1574178720328.31;-5.13727169878543;15.1458064888882;
1574178720344.94;-5.14272890202946;15.1427292993938;
1574178720361.57;-5.14217596954218;15.1346035958851;
1574178720378.2;-5.13703129335618;15.1512396515894;
1574178720394.84;-5.13881029353265;15.1405656505305;
1574178720411.47;-5.13316076594521;15.2006910483866;
1574178720428.1;-5.12330414334585;15.3019257746449;
1574178720444.73;-5.12707850858512;15.2562727836298;
1574178720461.36;-5.12325606226;15.2353575112849;
1574178720478.0;-5.12630921121151;15.2173751851768;
1574178720494.63;-5.1344829958061;15.2146826443691;
1574178720511.26;-5.13003549536492;15.2126391982205;
1574178720527.89;-5.12974700884982;15.2456468636569;
1574178720544.53;-5.13652644195475;15.1978302237785;
1574178720561.16;-5.14176728031245;15.2035999540806;
1574178720577.79;-5.13941130710578;15.2100668601275;
1574178720594.42;-5.14164707759783;15.2055231975146;
1574178720611.05;-5.14066141533789;15.2349488220551;
1574178720627.69;-5.14693599704138;15.1973253723771;
1574178720644.32;-5.15114309205331;15.2084801842944;
1574178720660.95;-5.14772933495792;15.2118939413898;
1574178720677.58;-5.14705619975601;15.2251402805416;
1574178720694.21;-5.15547038977985;15.1853051009145;
1574178720710.85;-5.1527538084293;15.2089129140671;
1574178720727.48;-5.15559059249448;15.2081436166935;
1574178720744.11;-5.14962853784901;15.2025181296489;
1574178720760.74;-5.14758509170037;15.2097543330694;
1574178720777.37;-5.1577061602719;15.2273520104907;
1574178720794.01;-5.16479812043486;15.1835501412809;
1574178720810.64;-5.15482129512087;15.2051385488278;
1574178720827.27;-5.1235445487751;15.205378954257;
1574178720843.9;-5.16068718759464;15.2221832937618;
1574178720860.53;-5.17566444583707;15.2129517252785;
1574178720877.17;-5.09469589726479;15.2216784423604;
1574178720893.8;-5.0712082868268;15.1997534672125;
1574178720910.43;-4.88335548440879;15.2022777242197;
1574178720927.06;-5.13671876629815;15.2821404078174;
1574178720943.7;-5.06454905643651;15.4355190716806;
1574178720960.33;-4.94562049058523;15.227904942978;
1574178720976.96;-4.96855516853593;15.3696720246083;
1574178720993.59;-4.90751623004868;15.4021507981003;
1574178721010.22;-5.17734728384184;15.1118131611919;
1574178721026.86;-5.43893243141164;14.7784669929902;
1574178721043.49;-5.47090635350224;14.6008073807725;
1574178721060.12;-5.41287248288065;14.7642349915785;
1574178721076.75;-4.99814907687693;14.7726491816023;
1574178721093.38;-4.81902299154079;14.798492765247;
1574178721110.02;-5.01656413275768;14.7663986404417;
1574178721126.65;-5.38811072366763;14.7187502843639;
1574178721143.28;-5.71268209370161;14.9731232690561;
1574178721159.91;-5.89801063911247;15.2146105227403;
1574178721176.54;-5.98623943164819;15.5130017415287;
1574178721193.18;-6.06569342601618;15.0446198437158;
1574178721209.81;-5.54278757684877;14.9280472510712;
1574178721226.44;-5.4284267141533;14.699085120251;
1574178721243.07;-5.55877453789408;14.4233881739841;
1574178721259.7;-5.67563561705378;14.3008054456082;
1574178721276.34;-5.66589919716905;14.4327159046391;
1574178721292.97;-5.67981867152278;14.5105351420882;
1574178721309.6;-5.4194836321851;14.395429022562;
1574178721326.23;-5.39919341395618;14.5542408491263;
1574178721342.87;-5.21540346329254;14.7150720812963;
1574178721359.5;-5.1736931213172;14.7772168847581;
1574178721376.13;-5.12469849483552;14.6536965752081;
1574178721392.76;-5.1458060915239;14.4703393543171;
1574178721409.39;-5.15575887629496;14.4545687581581;
1574178721426.03;-5.03985941885226;14.7262990148424;
1574178721442.66;-4.98230635908918;14.7576959639028;
1574178721459.29;-4.95119789654389;14.765677424154;
1574178721475.92;-4.93465800301131;14.7657014646969;
1574178721492.55;-4.91718052830464;14.7676968297597;
1574178721509.19;-4.93612447612975;14.7416128406858;
1574178721525.82;-4.90624208127365;14.7158894597558;
1574178721542.45;-4.8218838161489;14.6806219832844;
1574178721559.08;-4.95093345057171;14.6348728300976;
1574178721575.71;-4.8728016860646;14.588426501166;
1574178721592.35;-4.78103893371887;14.5988120157097;
1574178721608.98;-4.83085093866002;14.6692027253949;
1574178721625.61;-4.8544347112697;14.7248806228098;
1574178721642.24;-4.83438489847003;14.765677424154;
1574178721658.87;-4.83565904724507;14.720962014313;
1574178721675.51;-4.76757622968072;14.6577594269625;
1574178721692.14;-4.81621024801853;14.6307859378003;
1574178721708.77;-4.79786731376656;14.6471335069895;
1574178721725.4;-4.81053667988817;14.6514367641731;
1574178721742.04;-4.79433335395654;14.6593941838814;
1574178721758.67;-4.78243328520854;14.6516771696024;
1574178721775.3;-4.79736246236513;14.6478787638202;
1574178721791.93;-4.76127760743431;14.6052789217566;
1574178721808.56;-4.77017260831665;14.6128516927781;
1574178721825.2;-4.79399678635559;14.6381183033925;
1574178721841.83;-4.74194901092239;14.6389837629378;
1574178721858.46;-4.78813089388183;14.6304012891135;
1574178721875.09;-4.77437970332857;14.611577544003;
1574178721891.72;-4.75094017397644;14.6051346784991;
1574178721908.36;-4.79604023250424;14.5928259205213;
1574178721924.99;-4.69636814153609;14.5995813130833;
1574178721941.62;-4.76332105358295;14.610615922286;
1574178721958.25;-4.78861170474033;14.5992928265682;
1574178721974.88;-4.73675625365054;14.5949414882988;
1574178721991.52;-4.72798145548282;14.5891717579967;
1574178722008.15;-4.76043618843192;14.5970330155333;
1574178722024.78;-4.74468963281587;14.5881860957368;
1574178722041.41;-4.72473598218791;14.5843876899546;
1574178722058.04;-4.7195913060019;14.5723193374061;
1574178722074.68;-4.73113076660603;14.5676554720786;
1574178722091.31;-4.71661027867917;14.5740262159538;
1574178722107.94;-4.71927877894387;14.5717904454617;
1574178722124.57;-4.67268820675471;14.5634724176096;
1574178722141.2;-4.80015116534446;14.5445525103274;
1574178722157.84;-4.72456769838743;14.5505626460587;
1574178722174.47;-4.70362838549952;14.5603952281152;
1574178722191.1;-4.68843476237076;14.5602990659435;
1574178722207.73;-4.73115480714895;14.5496010243417;
1574178722224.37;-4.70656133173641;14.543398564267;
1574178722241.0;-4.68817031639858;14.5622703904633;
1574178722257.63;-4.67307285544151;14.5366191311621;
1574178722274.26;-4.67898682900113;14.5401530909721;
1574178722290.89;-4.70886922385723;14.5257528057598;
1574178722307.53;-4.69826734442719;14.5428696723226;
1574178722324.16;-4.6764866125369;14.5361383203036;
1574178722340.79;-4.68639131622211;14.5235651163536;
1574178722357.42;-4.67612600439302;14.5220986432352;
1574178722374.05;-4.69492570896058;14.5214735891191;
1574178722390.69;-4.71052802131907;14.5228919811517;
1574178722407.32;-4.68475655930319;14.5176271022511;
1574178722423.95;-4.69812310116964;14.5136604126684;
1574178722440.58;-4.70314757464102;14.5261134139037;
1574178722457.21;-4.67845793705677;14.5072175471645;
1574178722473.85;-4.66708676025312;14.4996207356001;
1574178722490.48;-4.67463549073166;14.5023373169506;
1574178722507.11;-4.68937234354484;14.5038999522408;
1574178722523.74;-4.67785692348364;14.5115688854339;
1574178722540.37;-4.65985055683262;14.4812778013481;
1574178722557.01;-4.68939638408777;14.5021930736931;
1574178722573.64;-4.69564692524834;14.490317045488;
1574178722590.27;-4.61621697142327;14.4863743964483;
1574178722606.9;-4.69220912761002;14.472959773496;
1574178722623.54;-4.67453932855995;14.4748349358441;
1574178722640.17;-4.68261695098284;14.4748589763871;
1574178722656.8;-4.67937147768793;14.4669736783076;
1574178722673.43;-4.65891297565853;14.457838271996;
1574178722690.06;-4.664875030304;14.4588479747988;
1574178722706.7;-4.6720150715528;14.4609154614904;
1574178722723.33;-4.67790500456949;14.4579584747106;
1574178722739.96;-4.65634063756553;14.4506261091184;
1574178722756.59;-4.63999306837635;14.4424523245238;
1574178722773.22;-4.66852919282864;14.4476210412527;
1574178722789.86;-4.67232759861083;14.4497125684872;
1574178722806.49;-4.65684548896696;14.4456737572758;
1574178722823.12;-4.6265303643382;14.4326437830103;
1574178722839.75;-4.62107316109417;14.4427888921248;
1574178722856.38;-4.67891470737235;14.4248546471025;
1574178722873.02;-4.63847851417206;14.4226429171534;
1574178722889.65;-4.65338365078572;14.4238449442997;
1574178722906.28;-4.61624101196619;14.4268740527082;
1574178722922.91;-4.65441739413151;14.4208639169769;
1574178722939.54;-4.6493688801172;14.4137238757281;
1574178722956.18;-4.63244433789782;14.4058385776486;
1574178722972.81;-4.67672701796615;14.4101899159181;
1574178722989.44;-4.67276032838349;14.3996361175739;
1574178723006.07;-4.62797279691372;14.4021603745811;
1574178723022.71;-4.63893528448764;14.3968714551375;
1574178723039.34;-4.59712878034061;14.3926403195827;
1574178723055.97;-4.62234730986921;14.3947558873601;
1574178723072.6;-4.63600233825076;14.3853319945334;
1574178723089.23;-4.61912587711722;14.3887217110858;
1574178723105.87;-4.63407909481674;14.3891063597726;
1574178723122.5;-4.64085852792166;14.3847790620461;
1574178723139.13;-4.59549402342169;14.3782640749134;
1574178723155.76;-4.58578164407988;14.366460168337;
1574178723172.39;-4.64821493405679;14.3829760213267;
1574178723189.03;-4.63787750059893;14.3719894932099;
1574178723205.66;-4.59772979391374;14.3770620477671;
1574178723222.29;-4.60097526720865;14.3554255591344;
1574178723238.92;-4.61119249795189;14.3519156398673;
1574178723255.55;-4.66444230053134;14.3617001408378;
1574178723272.19;-4.59780191554251;14.3632387355851;
1574178723288.82;-4.57291995361487;14.358430627;
1574178723305.45;-4.61984709340498;14.3428763957274;
1574178723322.08;-4.6334780812436;14.3518915993243;
1574178723338.71;-4.60027809146382;14.3539831265588;
1574178723355.35;-4.58426708987559;14.3457131797925;
1574178723371.98;-4.52188188098453;14.3481893557138;
1574178723388.61;-4.65314324535647;14.3461459095652;
1574178723405.24;-4.59982132114824;14.3502328018625;
1574178723421.88;-4.57154964266813;14.349102896345;
1574178723438.51;-4.56965043977703;14.3369383816248;
1574178723455.14;-4.57549229170787;14.3351113003625;
1574178723471.77;-4.58102161658068;14.3369864627107;
1574178723488.4;-4.57328056175874;14.3444630715604;
1574178723505.04;-4.57751169731359;14.3413378009801;
1574178723521.67;-4.55205276235574;14.3323466379261;
1574178723538.3;-4.61256280889863;14.3236680019301;
1574178723554.93;-4.60075890232232;14.3361450437083;
1574178723571.56;-4.5713332777818;14.3337890705016;
1574178723588.2;-4.54094603152427;14.333668867787;
1574178723604.83;-4.51904509691935;14.3267451914245;
1574178723621.46;-4.54445595079135;14.3238603262735;
1574178723638.09;-4.53784480148691;14.3275866104269;
1574178723654.72;-4.52373300278978;14.3308320837218;
1574178723671.36;-4.53169042249804;14.3215283936097;
1574178723687.99;-4.53880642320392;14.3040509189031;
1574178723704.62;-4.49332171598932;14.3213841503522;
1574178723721.25;-4.543927058847;14.3211918260088;
1574178723737.88;-4.51394850181919;14.3134507711868;
1574178723754.52;-4.51637659665465;14.3033537431582;
1574178723771.15;-4.53577731479533;14.3045557703045;
1574178723787.78;-4.52224248912841;14.3020555538403;
1574178723804.41;-4.51065494743843;14.3076810408848;
1574178723821.05;-4.48858572903304;14.3151095686487;
1574178723837.68;-4.48303236361731;14.2869580928832;
1574178723854.31;-4.53786884202983;14.2957328910509;
1574178723870.94;-4.48772026948773;14.3082820544579;
1574178723887.57;-4.5398401665497;14.3091234734603;
1574178723904.21;-4.47118037595515;14.3046759730191;
1574178723920.84;-4.52397340821903;14.2993630130326;
1574178723937.47;-4.49820194620315;14.3009256483228;
1574178723954.1;-4.48774431003066;14.2965262289675;
1574178723970.73;-4.41562268125487;14.2921508501551;
1574178723987.37;-4.49394677010537;14.2940019719603;
1574178724004.0;-4.49221585101476;14.299891904977;
1574178724020.63;-4.47459413305054;14.2933769178442;
1574178724037.26;-4.44995257655214;14.2874389037417;
1574178724053.89;-4.51317920444559;14.289915079663;
1574178724070.53;-4.41838734369127;14.2955646072504;
1574178724087.16;-4.48800875600283;14.2978003777425;
1574178724103.79;-4.46149203715627;14.3015747429818;
1574178724120.42;-4.45317400930413;14.2721010373554;
1574178724137.05;-4.47856082263321;14.2834000925303;
1574178724153.69;-4.55258165430009;14.2282030059739;
1574178724170.32;-4.5256562462238;14.2006285032386;
1574178724186.95;-4.52923828711966;14.4003092527758;
1574178724203.58;-4.45293360387487;14.1706739867537;
1574178724220.21;-4.52459846233509;14.2926076204706;
1574178724236.85;-4.49562960811014;14.2257027895096;
1574178724253.48;-4.43593694002671;14.1095388860948;
1574178724270.11;-4.53842177451711;14.170914392183;
1574178724286.74;-4.4943554593351;14.2052683280232;
1574178724303.38;-4.40148684201481;14.2863089982242;
1574178724320.01;-4.37715781257444;14.2528686030152;
1574178724336.64;-4.35821386474934;14.4151903488466;
1574178724353.27;-4.30881054903792;14.2136584775041;
1574178724369.9;-4.2503679891866;14.2737117537314;
1574178724386.54;-4.21529283705864;14.2337082903037;
1574178724403.17;-4.15646562852052;14.3258076102504;
1574178724419.8;-4.02114141239422;14.5559958087598;
1574178724436.43;-3.89081762919636;14.0446534607395;
1574178724453.06;-3.95529436532192;14.4302878098036;
1574178724469.7;-4.06198629482424;14.28027482195;
1574178724486.33;-4.26318159856577;14.2028642737306;
1574178724502.96;-4.29207833116194;14.3229227450994;
1574178724519.59;-4.21409080991238;14.3753311286765;
1574178724536.22;-3.82458593343726;14.4697864218298;
1574178724552.86;-3.90637186046901;14.5439995778401;
1574178724569.49;-5.05933225862172;14.3889380759722;
1574178724586.12;-5.49677397768982;14.6609087380857;
1574178724602.75;-5.91635357336445;15.1100101204725;
1574178724619.38;-5.76679735582638;15.4264798275407;
1574178724636.02;-5.44438963465567;15.1524657192785;
1574178724652.65;-5.11609198046827;15.9653005161246;
1574178724669.28;-4.80308411158134;15.8915441304299;
1574178724685.91;-4.82373493795414;15.6300551450318;
1574178724702.55;-5.27336521228535;15.669553757058;
1574178724719.18;-5.41248783419385;15.5623088950684;
1574178724735.81;-5.20350339454453;15.6526532553816;
1574178724752.44;-4.95136618034436;15.4812201437815;
1574178724769.07;-5.00100990148503;15.5826231538403;
1574178724785.71;-5.14366648320355;15.7928577017217;
1574178724802.34;-5.11491399386493;15.94299089229;
1574178724818.97;-5.09205143754301;15.802089270205;
1574178724835.6;-5.0849113962942;15.8142057038393;
1574178724852.23;-5.10017714105175;15.8787786021366;
1574178724868.87;-5.0800552066233;15.7804047004864;
1574178724885.5;-5.054740514923;15.7086436798545;
1574178724902.13;-5.00276486111858;15.7308811820604;
1574178724918.76;-4.99891837425054;15.7125622883513;
1574178724935.39;-4.96848304690715;15.7343670607845;
1574178724952.03;-4.93783135467744;15.6735925682695;
1574178724968.66;-4.91638719038811;15.6699624462878;
1574178724985.29;-4.89205816094774;15.6577979315676;
1574178725001.92;-4.87534998361468;15.6315216181503;
1574178725018.55;-4.84551566984443;15.6581585397115;
1574178725035.19;-4.82214826212107;15.5493750829746;
1574178725051.82;-4.80548816587387;15.57242996364;
1574178725068.45;-4.78262560955194;15.6128180757544;
1574178725085.08;-4.7905830292602;15.5310321487227;
1574178725101.72;-4.7787791226839;15.5837290188148;
1574178725118.35;-4.77137463546292;15.5286040538872;
1574178725134.98;-4.77014856777373;15.5361287438228;
1574178725151.61;-4.76851381085481;15.5215120937243;
1574178725168.24;-4.75827253956865;15.5486779072298;
1574178725184.88;-4.76406631041364;15.4939616315319;
1574178725201.51;-4.75512322844544;15.5210793639516;
1574178725218.14;-4.74983430900188;15.4794892246909;
1574178725234.77;-4.75139694429202;15.5194446070327;
1574178725251.4;-4.74069890269028;15.4894900905478;
1574178725268.04;-4.7557482825615;15.4813403464961;
1574178725284.67;-4.75596464744782;15.4762918324818;
1574178725301.3;-4.74793510611078;15.4756908189087;
1574178725317.93;-4.74002576748837;15.4917018204969;
1574178725334.56;-4.72790933385404;15.5091071735748;
1574178725351.2;-4.75081997126182;15.4419859777275;
1574178725367.83;-4.7446175111871;15.4743926295907;
1574178725384.46;-4.73658796985006;15.4863888605105;
1574178725401.09;-4.73550614541842;15.4509050191528;
1574178725417.72;-4.72915944208615;15.4779265894008;
1574178725434.36;-4.73028934760364;15.4761235486814;
1574178725450.99;-4.73553018596135;15.4759552648809;
1574178725467.62;-4.7357705913906;15.4559054520812;
1574178725484.25;-4.73721302396612;15.465954399024;
1574178725500.89;-4.74574741670459;15.4803546842362;
1574178725517.52;-4.75113249831984;15.4904757528077;
1574178725534.15;-4.74666095733575;15.5096120249763;
1574178725550.78;-4.74026617291763;15.4680940073443;
1574178725567.41;-4.73122692877773;15.4648244935065;
1574178725584.05;-4.71814887342638;15.4725174672426;
1574178725600.68;-4.71216277823799;15.4823740898419;
1574178725617.31;-4.71160984575071;15.4401588964652;
1574178725633.94;-4.70672961553688;15.4473950998857;
1574178725650.57;-4.70908558874356;15.4502559244938;
1574178725667.21;-4.72050484663306;15.4568430332553;
1574178725683.84;-4.71870180591366;15.4824221709278;
1574178725700.47;-4.72372627938504;15.442779315644;
1574178725717.1;-4.72338971178409;15.4579729387728;
1574178725733.73;-4.71663431922209;15.4497510730924;
1574178725750.37;-4.71060014294785;15.4837444007887;
1574178725767.0;-4.72199536029443;15.4224650568722;
1574178725783.63;-4.71182621063704;15.4504001677513;
1574178725800.26;-4.70728254802416;15.4601846687219;
1574178725816.89;-4.71201853498044;15.449871275807;
1574178725833.53;-4.71463895415929;15.4652331827362;
1574178725850.16;-4.71781230582543;15.4573719251997;
1574178725866.79;-4.72110586020619;15.4382116124882;
1574178725883.42;-4.71858160319904;15.4724693861567;
1574178725900.06;-4.72656306345023;15.4197003944358;
1574178725916.69;-4.7220674819232;15.4425869913006;
1574178725933.32;-4.72502446870301;15.4404714235232;
1574178725949.95;-4.72341375232702;15.4356152338523;
1574178725966.58;-4.73468876695896;15.4684305749453;
1574178725983.22;-4.73757363211;15.4315523820979;
1574178725999.85;-4.73891990251381;15.43025419278;
1574178726016.48;-4.73668413202176;15.4414330452402;
1574178726033.11;-4.7356744292189;15.4429716399874;
1574178726049.74;-4.73928051065769;15.4185464483754;
1574178726066.38;-4.7425259839526;15.4245565841067;
1574178726083.01;-4.74098738920538;15.422513137958;
1574178726099.64;-4.73942475391524;15.4492943027768;
1574178726116.27;-4.74081910540491;15.4263596248261;
1574178726132.9;-4.74538680856071;15.4189551376051;
1574178726149.54;-4.74581953833336;15.4261192193968;
1574178726166.17;-4.73817464568313;15.424436381392;
1574178726182.8;-4.73738130776659;15.4378990854302;
1574178726199.43;-4.74245386232382;15.4166712860272;
1574178726216.06;-4.744329024672;15.4236430434755;
1574178726232.7;-4.74218941635165;15.4296291386639;
1574178726249.33;-4.74012192966007;15.4476835864008;
1574178726265.96;-4.7450983220456;15.4162866373404;
1574178726282.59;-4.7450021598739;15.4284030709747;
1574178726299.22;-4.7472860114518;15.4178973537164;
1574178726315.86;-4.742718308296;15.4399665721218;
1574178726332.49;-4.7405306188898;15.4086657852331;
1574178726349.12;-4.74084314594783;15.3995544194644;
1574178726365.75;-4.74293467318233;15.407728204059;
1574178726382.39;-4.74735813308058;15.4145316777068;
1574178726399.02;-4.74096334866246;15.403232622532;
1574178726415.65;-4.7403382945464;15.3805623905534;
1574178726432.28;-4.72988065837391;15.4008526087824;
1574178726448.91;-4.73601099681985;15.407728204059;
1574178726465.55;-4.73192410452256;15.4062617309405;
1574178726482.18;-4.73483301021652;15.3812595662983;
1574178726498.81;-4.72918348262908;15.4021267575574;
1574178726515.44;-4.73096248280555;15.3984245139469;
1574178726532.07;-4.74192497037947;15.408377298718;
1574178726548.71;-4.74163648386437;15.3773409578015;
1574178726565.34;-4.73812656459728;15.3966214732275;
1574178726581.97;-4.73937667282939;15.3931596350463;
1574178726598.6;-4.7380544429685;15.4059011227967;
1574178726615.23;-4.73925647011476;15.3740233628778;
1574178726631.87;-4.73733322668074;15.390346891524;
1574178726648.5;-4.73324633438345;15.3945059054501;
1574178726665.13;-4.73036146923242;15.4085936636043;
1574178726681.76;-4.72831802308377;15.3908998240113;
1574178726698.39;-4.72968833403051;15.3944578243642;
1574178726715.03;-4.72774105005356;15.3828462421313;
1574178726731.66;-4.72649094182145;15.3951309595662;
1574178726748.29;-4.72137030617837;15.3979917841743;
1574178726764.92;-4.7243513335011;15.3923422565868;
1574178726781.56;-4.72817377982622;15.3825096745304;
1574178726798.19;-4.72365415775627;15.3964051083412;
1574178726814.82;-4.72714003648043;15.3846733233937;
1574178726831.45;-4.71389369732861;15.3947943919652;
1574178726848.08;-4.70785952105437;15.3701528354668;
1574178726864.72;-4.71336480538426;15.3789276336345;
1574178726881.35;-4.70538334513307;15.382629877245;
1574178726897.98;-4.70831629136995;15.3853945396814;
1574178726914.61;-4.70886922385723;15.3976552165733;
1574178726931.24;-4.70956639960206;15.3672679703158;
1574178726947.88;-4.70574395327695;15.3792161201496;
1574178726964.51;-4.7080758859407;15.3783747011472;
1574178726981.14;-4.71300419724038;15.4009487709541;
1574178726997.77;-4.70658537227933;15.3656812944827;
1574178727014.4;-4.70076756089142;15.3847214044795;
1574178727031.04;-4.68677596490891;15.3996025005502;
1574178727047.67;-4.70235423672448;15.4213111108118;
1574178727064.3;-4.69795481736916;15.3856830261965;
1574178727080.93;-4.62020770154886;15.3727972951886;
1574178727097.56;-4.74240578123797;15.3756100387108;
1574178727114.2;-4.72314930635484;15.3965974326846;
1574178727130.83;-4.66319219229923;15.3702970787244;
1574178727147.46;-4.51976631320711;15.2982716121203;
1574178727164.09;-4.52820454377388;15.2432187688214;
1574178727180.73;-4.7246398200162;15.2444207959677;
1574178727197.36;-4.70891730494308;15.2571622837181;
1574178727213.99;-4.62809299962835;15.3240430741361;
1574178727230.62;-4.60727388945507;15.2918527871592;
1574178727247.25;-4.59924434811803;15.4632378176734;
1574178727263.89;-4.79507861078723;15.3291877503222;
1574178727280.52;-5.3056757019769;15.1747753431132;
1574178727297.15;-5.62130399004269;15.1735733159669;
1574178727313.78;-5.3011079988211;15.0570728449511;
1574178727330.41;-4.48329680958948;15.0751994143167;
1574178727347.05;-4.20786430929474;15.0479614791824;
1574178727363.68;-4.80697867953523;15.1214774594479;
1574178727380.31;-5.10770183098735;14.9582181324424;
1574178727396.94;-5.13263187400085;14.8563102709822;
1574178727413.57;-5.08842131556129;14.9854801081197;
1574178727430.21;-5.16124012008192;15.6394309567727;
1574178727446.84;-5.20371975943086;15.3403906433253;
1574178727463.47;-4.95889087027997;15.4226333406727;
1574178727480.1;-4.96076603262814;14.9706230525918;
1574178727496.73;-5.01062611865514;14.9193926556181;
1574178727513.37;-4.90806916253597;14.7177646221039;
1574178727530.0;-4.99319672503432;14.9368941708677;
1574178727546.63;-5.03420989126482;14.8253941327803;
1574178727563.26;-4.83183660091995;14.8311398225395;
1574178727579.9;-4.76820128379678;14.995024203661;
1574178727596.53;-4.73598695627693;14.9834847430569;
1574178727613.16;-4.70105604740652;14.9563429700942;
1574178727629.79;-4.62013557992008;14.9121564521976;
1574178727646.42;-4.74853611968392;14.9198253853908;
1574178727663.06;-4.62047214752104;14.9314610081666;
1574178727679.69;-4.52459846233509;14.9784843101284;
1574178727696.32;-4.49772113534464;15.1357094608596;
1574178727712.95;-4.41410812705057;15.0965474164344;
1574178727729.58;-4.46444902393608;14.9685555659003;
1574178727746.22;-4.47190159224291;14.8379192556444;
1574178727762.85;-4.46851187569045;14.8416455397978;
1574178727779.48;-4.43136923687091;14.924561372347;
1574178727796.11;-4.50813069043128;15.0053616371189;
1574178727812.74;-4.43151348012847;14.9856243513772;
1574178727829.38;-4.33539938951326;14.9144643443184;
1574178727846.01;-4.40223209884549;14.8277020249012;
1574178727862.64;-4.41668046514358;14.8251537273511;
1574178727879.27;-4.38412957002277;14.8961454506094;
1574178727895.9;-4.38049944804106;14.9766091477802;
1574178727912.54;-4.33676970046;14.9703586066197;
1574178727929.17;-4.35210756684632;14.9274462374981;
1574178727945.8;-4.42172897915788;14.8886928823025;
1574178727962.43;-4.36537794654107;14.8641234474329;
1574178727979.06;-4.34775622857685;14.8450352563503;
1574178727995.7;-4.36153145967302;14.8569593656412;
1574178728012.33;-4.39009162466824;14.8664072990108;
1574178728028.96;-4.32361952347988;14.8930201800291;
1574178728045.59;-4.3088826706667;14.8943664504329;
1574178728062.23;-4.27274973465002;14.8727059212572;
1574178728078.86;-4.35415101299497;14.8531128787732;
1574178728095.49;-4.29279954744969;14.8663111368391;
1574178728112.12;-4.27851946495209;14.8745089619766;
1574178728128.75;-4.25087284058803;14.8675131639854;
1574178728145.39;-4.26214785521998;14.8503962974226;
1574178728162.02;-4.27270165356417;14.8437370670323;
1574178728178.65;-4.27198043727642;14.8382558232453;
1574178728195.28;-4.24221824513494;14.8420542290275;
1574178728211.91;-4.25717146283445;14.8327986200013;
1574178728228.55;-4.23952570432731;14.8314763901404;
1574178728245.18;-4.25431063822635;14.8283511195601;
1574178728261.81;-4.25832540889487;14.8432802967167;
1574178728278.44;-4.22031731053002;14.8172924698145;
1574178728295.07;-4.2800580596993;14.8087099959902;
1574178728311.71;-4.21060493118822;14.8085176716468;
1574178728328.34;-4.26712424760551;14.8055366443241;
1574178728344.97;-4.24642534014686;14.8140950776055;
1574178728361.6;-4.19132441576216;14.8022190494004;
1574178728378.24;-4.26133047676052;14.7976513462446;
1574178728394.87;-4.2433241101095;14.8027960224306;
1574178728411.5;-4.23548689311587;14.8081570635029;
1574178728428.13;-4.22709674363495;14.7999111572796;
1574178728444.76;-4.21281666113734;14.7851502639234;
1574178728461.4;-4.20447459274228;14.7928913187454;
1574178728478.03;-4.2245724866278;14.7856791558678;
1574178728494.66;-4.21007603924386;14.7871215884433;
1574178728511.29;-4.22637552734719;14.7779861821317;
1574178728527.92;-4.22132701333289;14.7873619938726;
1574178728544.56;-4.22611108137501;14.7914248456269;
1574178728561.19;-4.22916423032652;14.7867369397565;
1574178728577.82;-4.12788142298239;14.7747887899226;
1574178728594.45;-4.26337392290917;14.775630208925;
1574178728611.08;-4.18315063116757;14.7699806813376;
1574178728627.72;-4.20880189046882;14.7799094255657;
1574178728644.35;-4.182044766193;14.7689950190777;
1574178728660.98;-4.20007517338695;14.7583931396476;
1574178728677.61;-4.15473470942991;14.7626723562883;
1574178728694.24;-4.19740667312225;14.7755821278392;
1574178728710.88;-4.19646909194816;14.7668554107573;
1574178728727.51;-4.17088995427568;14.7587056667056;
1574178728744.14;-4.14002189715964;14.7513011794847;
1574178728760.77;-4.20375337645452;14.7626963968312;
1574178728777.4;-4.17057742721765;14.7557967610117;
1574178728794.04;-4.16908691355629;14.7430312327184;
1574178728810.67;-4.15593673657617;14.7440168949783;
1574178728827.3;-4.16420668334246;14.7548591798376;
1574178728843.93;-4.19055511838855;14.7480076251039;
1574178728860.57;-4.16831761618268;14.7408435433122;
1574178728877.2;-4.19947415981382;14.72899155565;
1574178728893.83;-4.18954541558569;14.7376461511031;
1574178728910.46;-4.17997727950143;14.7325976370888;
1574178728927.09;-4.15293166871051;14.7356267454974;
1574178728943.73;-4.17420754919937;14.7231497037192;
1574178728960.36;-4.12535716597523;14.7279337717613;
1574178728976.99;-4.16944752170017;14.7191589735936;
1574178728993.62;-4.14824376284008;14.7267077040721;
1574178729010.25;-4.11997208435997;14.7184137167629;
1574178729026.89;-4.16584144026138;14.7097350807669;
1574178729043.52;-4.14766678980988;14.7227169739465;
1574178729060.15;-4.1564415879776;14.7161058246421;
1574178729076.78;-4.1289392068711;14.7158894597558;
1574178729093.41;-4.13747359960957;14.6985562283066;
1574178729110.05;-4.15141711450622;14.7089177023074;
1574178729126.68;-4.13913239707141;14.720649487255;
1574178729143.31;-4.14223362710877;14.7151201623821;
1574178729159.94;-4.08254095902534;14.7078599184187;
1574178729176.57;-4.11391386754281;14.7000227014251;
1574178729193.21;-4.14906114129954;14.7095187158806;
1574178729209.84;-4.13550227508969;14.7159856219275;
1574178729226.47;-4.11018758338939;14.7068742561588;
1574178729243.1;-4.13684854549351;14.6937962008074;
1574178729259.74;-4.09109939230673;14.701994025945;
1574178729276.37;-4.11396194862866;14.7096389185952;
1574178729293.0;-4.11480336763104;14.6994216878519;
1574178729309.63;-4.10843262375585;14.6983879445062;
1574178729326.26;-4.06446247074554;14.7028594854903;
1574178729342.9;-4.13129518007777;14.7014651340006;
1574178729359.53;-4.1387477483846;14.7023786746318;
1574178729376.16;-4.09218121673837;14.7006477555411;
1574178729392.79;-4.10112429870657;14.6960079307566;
1574178729409.42;-4.12439554425822;14.7063934453003;
1574178729426.06;-4.07083321462074;14.6974263227892;
1574178729442.69;-4.12631878769224;14.7039653504648;
1574178729459.32;-4.13478105880194;14.6895891057955;
1574178729475.95;-4.04157587388069;14.6883630381063;
1574178729492.58;-4.15211429025105;14.7042778775229;
1574178729509.22;-4.0968691226088;14.6969695524736;
1574178729525.85;-4.10412936657223;14.6901660788257;
1574178729542.48;-4.04431649577417;14.6962483361858;
1574178729559.11;-4.11804884092595;14.6939164035221;
1574178729575.74;-4.07987245876063;14.6889880922224;
1574178729592.38;-4.11023566447524;14.6885553624497;
1574178729609.01;-4.05448564543156;14.6862715108718;
1574178729625.64;-4.12711212560878;14.6893006192804;
1574178729642.27;-4.077179917953;14.6909594167423;
1574178729658.91;-4.07006391724713;14.6821365374887;
1574178729675.54;-4.08444016191643;14.6814634022868;
1574178729692.17;-4.15447026345773;14.6858387810992;
1574178729708.8;-4.09564305491961;14.690406484255;
1574178729725.43;-4.0429221442845;14.6766552937017;
1574178729742.07;-4.0967729604371;14.6850935242685;
1574178729758.7;-4.12223189539495;14.6799007669966;
1574178729775.33;-4.08499309440372;14.6831221997486;
1574178729791.96;-4.06667420069466;14.6726645635761;
1574178729808.59;-4.08910402724394;14.6783140911636;
1574178729825.23;-4.10845666429877;14.6848050377534;
1574178729841.86;-4.08893574344346;14.6781458073631;
1574178729858.49;-4.06253922731152;14.6725684014044;
1574178729875.12;-4.092301419453;14.6728568879195;
1574178729891.75;-4.06619338983616;14.678818942565;
1574178729908.39;-4.08633936480753;14.6746839691819;
1574178729925.02;-4.06402974097289;14.675934077414;
1574178729941.65;-4.07328534999911;14.6730972933488;
1574178729958.28;-4.06044770007702;14.6801411724259;
1574178729974.91;-4.10730271823836;14.6711740499148;
1574178729991.55;-4.11958743567317;14.6717991040308;
1574178730008.18;-4.05717818623919;14.6776890370475;
1574178730024.81;-4.0840314726867;14.6683853469354;
1574178730041.44;-4.08578643232025;14.6712221310006;
1574178730058.08;-4.06520772757622;14.6596586298536;
1574178730074.71;-4.06136124070818;14.6653802790698;
1574178730091.34;-4.10679786683693;14.668529590193;
1574178730107.97;-4.07684335035205;14.6761985233861;
1574178730124.6;-4.03318572439977;14.6652841168981;
1574178730141.24;-4.05412503728768;14.6678324144482;
1574178730157.87;-4.0718429174236;14.6388635602232;
1574178730174.5;-4.08725290543869;14.7419013272009;
1574178730191.13;-4.10451401525903;14.6710538472001;
1574178730207.76;-4.12509272000306;14.5986677724522;
1574178730224.4;-4.09186868968034;14.6077791382208;
1574178730241.03;-4.10747100203884;14.71033609434;
1574178730257.66;-4.21156655290523;14.9608145110783;
1574178730274.29;-4.03049318359214;14.4197820925453;
1574178730290.92;-4.1269438418083;14.5886909471382;
1574178730307.56;-4.11331285396968;14.6025382998631;
1574178730324.19;-4.10528331263264;14.5605394713727;
1574178730340.82;-4.07941568844505;14.5560679303886;
1574178730357.45;-4.06838107924236;14.6021536511763;
1574178730374.08;-4.03332996765732;14.6186214230801;
1574178730390.72;-3.95212101365578;14.6663659413297;
1574178730407.35;-3.95957358196262;14.6197753691406;
1574178730423.98;-3.91973840233545;14.8027479413447;
1574178730440.61;-3.81410425672184;14.5975619074776;
1574178730457.24;-3.79109745714237;14.5952059342709;
1574178730473.88;-3.78883764610739;14.7729376681174;
1574178730490.51;-3.7618160758594;14.5996534347121;
1574178730507.14;-3.80318985023378;14.5287338330826;
1574178730523.77;-3.84377028669162;14.6920893222597;
1574178730540.41;-3.78530368629738;14.8432562561738;
1574178730557.04;-3.82754292021707;14.5890034741962;
1574178730573.67;-3.97493548889186;14.3698258443466;
1574178730590.3;-4.11288012419702;14.8637387987461;
1574178730606.93;-4.02359354777259;14.5163289129331;
1574178730623.57;-4.01203004662554;14.6755734692701;
1574178730640.2;-4.04797065829881;14.8913854231102;
1574178730656.83;-4.00784699215654;14.4834174096685;
1574178730673.46;-3.7436414254079;14.6664621035014;
1574178730690.09;-3.41277143312749;14.6741069961516;
1574178730706.73;-3.56088521809004;14.5789785677964;
1574178730723.36;-4.03400310285923;14.8519348921698;
1574178730739.99;-4.41446873519445;14.9011458835378;
1574178730756.62;-4.90554490552881;14.9301628188486;
1574178730773.25;-5.32315317668357;15.4398704099501;
1574178730789.89;-5.52192038558965;15.7070810445644;
1574178730806.52;-5.04911502787849;15.8640177087805;
1574178730823.15;-4.54008057197896;16.3003054817882;
1574178730839.78;-4.47274301124529;16.0361479961254;
1574178730856.41;-4.5578224926578;16.0497309028782;
1574178730873.05;-4.55505783022139;15.8679843983632;
1574178730889.68;-4.79594407033254;15.8775525344474;
1574178730906.31;-4.78625573153366;15.9059444156422;
1574178730922.94;-4.91895952848111;16.0132854398035;
1574178730939.58;-5.07226607071552;16.0868735416977;
1574178730956.21;-5.06721755670121;16.1878438219838;
1574178730972.84;-5.04498005449534;16.1710154419361;
1574178730989.47;-5.01367926760665;16.0701653643646;
1574178731006.1;-4.87700878107652;16.0895660825053;
1574178731022.74;-4.82094623497481;15.995110789352;
1574178731039.37;-4.77774537933811;16.0370855772995;
1574178731056.0;-4.75666182319266;16.032085144371;
1574178731072.63;-4.74562721398996;16.0339843472621;
1574178731089.26;-4.74536276801778;15.9637378808345;
1574178731105.9;-4.72100969803449;15.9940530054632;
1574178731122.53;-4.72117798183497;15.9970580733289;
1574178731139.16;-4.71588906239141;15.9892689374211;
1574178731155.79;-4.70783548051144;15.9200081332534;
1574178731172.42;-4.69122346535009;15.8987562933075;
1574178731189.06;-4.68009269397569;15.8956310227272;
1574178731205.69;-4.65025838020544;15.8803652779697;
1574178731222.32;-4.60717772728337;15.8478865044776;
1574178731238.95;-4.60265810521342;15.9029874288623;
1574178731255.58;-4.6012156726379;15.8255528401001;
1574178731272.22;-4.60756237597017;15.8412513146303;
1574178731288.85;-4.62802087799957;15.8412753551732;
1574178731305.48;-4.62568894533582;15.8306013541144;
1574178731322.11;-4.62542449936364;15.8845002513528;
1574178731338.75;-4.62537641827779;15.8184608799371;
1574178731355.38;-4.62554470207827;15.8148547984983;
1574178731372.01;-4.62410226950275;15.7994688510262;
1574178731388.64;-4.63064129717842;15.8266827456176;
1574178731405.27;-4.63013644577699;15.7954300398147;
1574178731421.91;-4.63011240523407;15.7778804434793;
1574178731438.54;-4.64218075778255;15.773144456523;
1574178731455.17;-4.63160291889543;15.78569361993;
1574178731471.8;-4.63174716215299;15.7855974577583;
1574178731488.43;-4.63439162187476;15.7392953720842;
1574178731505.07;-4.63362232450116;15.762206009492;
1574178731521.7;-4.64165186583819;15.7624464149213;
1574178731538.33;-4.64996989369034;15.7442236833839;
1574178731554.96;-4.64275773081276;15.7686729155389;
1574178731571.59;-4.65405678598763;15.7755004297297;
1574178731588.23;-4.65869661077221;15.7048693146152;
1574178731604.86;-4.65732629982547;15.7353527230445;
1574178731621.49;-4.65403274544471;15.7266981275914;
1574178731638.12;-4.66708676025312;15.7310254253179;
1574178731654.75;-4.66126894886521;15.7427572102655;
1574178731671.39;-4.67107749037872;15.7378048584229;
1574178731688.02;-4.65879277294391;15.7128988559523;
1574178731704.65;-4.65944186760289;15.7163606941335;
1574178731721.28;-4.66119682723643;15.7480220891661;
1574178731737.92;-4.67528458539064;15.7100380313442;
1574178731754.55;-4.67586155842084;15.7146778561288;
1574178731771.18;-4.67018799029048;15.7340304931836;
1574178731787.81;-4.6744912474741;15.7151586669873;
1574178731804.44;-4.68655960002259;15.7153990724165;
1574178731821.08;-4.69088689774913;15.7120093558641;
1574178731837.71;-4.68704041088109;15.7277559114801;
1574178731854.34;-4.69653642533657;15.6997727195151;
1574178731870.97;-4.70812396702655;15.7225631542082;
1574178731887.6;-4.70278696649714;15.7079224635668;
1574178731904.24;-4.70098392577774;15.7044846659284;
1574178731920.87;-4.70177726369428;15.692079745779;
1574178731937.5;-4.70213787183816;15.7525176706931;
1574178731954.13;-4.70610456142083;15.6838819206415;
1574178731970.76;-4.69547864144786;15.6995803951717;
1574178731987.4;-4.70064735817679;15.6831366638108;
1574178732004.03;-4.70338798007027;15.6921759079507;
1574178732020.66;-4.70716234530954;15.6938106648696;
1574178732037.29;-4.7129320756116;15.6560189313911;
1574178732053.92;-4.72055292771891;15.672462662752;
1574178732070.56;-4.71831715722686;15.6709481085477;
1574178732087.19;-4.71639391379284;15.6509463768339;
1574178732103.82;-4.73043359086119;15.6524128499523;
1574178732120.45;-4.7222598062666;15.6557064043331;
1574178732137.09;-4.73545806433257;15.6519801201797;
1574178732153.72;-4.7377659564534;15.6826798934952;
1574178732170.35;-4.74413670032859;15.6314254559786;
1574178732186.98;-4.73620332116326;15.6626060401526;
1574178732203.61;-4.74702156547962;15.6298387801455;
1574178732220.25;-4.75158926863542;15.6934500567257;
1574178732236.88;-4.75779172871014;15.6154384949333;
1574178732253.51;-4.75024299823161;15.6526292148387;
1574178732270.14;-4.7560367690766;15.6207274143768;
1574178732286.77;-4.76449904018629;15.6516916336646;
1574178732303.41;-4.77163908143509;15.6004612366908;
1574178732320.04;-4.77098998677611;15.6307763613196;
1574178732336.67;-4.77995710928724;15.6262086581638;
1574178732353.3;-4.77899548757023;15.6265692663077;
1574178732369.93;-4.76885037845576;15.6065675345938;
1574178732386.57;-4.77115827057659;15.6108707917775;
1574178732403.2;-4.78123125806227;15.610702507977;
1574178732419.83;-4.77966862277213;15.5844502351026;
1574178732436.46;-4.7812552986052;15.6059905615636;
1574178732453.09;-4.7793560957141;15.5886573301145;
1574178732469.73;-4.79361213766879;15.6089715888864;
1574178732486.36;-4.7998145977435;15.5902440059476;
1574178732502.99;-4.80808454450979;15.5768053424524;
1574178732519.62;-4.81157042323396;15.5857965055064;
1574178732536.25;-4.81604196421806;15.584979127047;
1574178732552.89;-4.8222684648357;15.5666842738808;
1574178732569.52;-4.81801328873793;15.5849070054182;
1574178732586.15;-4.82808627622361;15.5925518980684;
1574178732602.78;-4.82710061396368;15.5671891252823;
1574178732619.42;-4.83414449304078;15.5574527053975;
1574178732636.05;-4.83195680363458;15.5938981684722;
1574178732652.68;-4.83926512868386;15.5495193262322;
1574178732669.31;-4.83921704759801;15.5724540041829;
1574178732685.94;-4.84503485898592;15.5419225146678;
1574178732702.58;-4.8476793187077;15.5552169349055;
1574178732719.21;-4.84789568359403;15.5620925301821;
1574178732735.84;-4.85164600829037;15.5600250434905;
1574178732752.47;-4.85082862983091;15.5520916643252;
1574178732769.1;-4.85626179253202;15.5522359075828;
1574178732785.74;-4.85885817116795;15.5618280842099;
1574178732802.37;-4.86643094218941;15.5503607452346;
1574178732819.0;-4.88128799771722;15.5387251224588;
1574178732835.63;-4.88547105218622;15.5459613258793;
1574178732852.26;-4.88049465980069;15.5544476375319;
1574178732868.9;-4.88049465980069;15.5589432190589;
1574178732885.53;-4.89222644474822;15.5516348940096;
1574178732902.16;-4.89419776926809;15.5391818927743;
1574178732918.79;-4.89607293161626;15.5385568386583;
1574178732935.42;-4.9110501898587;15.5079291869715;
1574178732952.06;-4.91068958171482;15.5320899326114;
1574178732968.69;-4.91434374423946;15.5382683521432;
1574178732985.32;-4.90809320307889;15.5391338116885;
1574178733001.95;-4.91835851490798;15.5349747977624;
1574178733018.59;-4.92155590711704;15.556346840423;
1574178733035.22;-4.93653316535948;15.5407204875216;
1574178733051.85;-4.93124424591592;15.5448314203618;
1574178733068.48;-4.94232693620447;15.5818778970096;
1574178733085.11;-4.94391361203753;15.5499760965478;
1574178733101.75;-4.94203844968936;15.5346141896185;
1574178733118.38;-4.93941803051051;15.5535100563578;
1574178733135.01;-4.94917849093817;15.5512502453228;
1574178733151.64;-4.96773779007647;15.5366335952243;
1574178733168.27;-4.9454041256989;15.5551207727338;
1574178733184.91;-4.97362772309316;15.5306234594929;
1574178733201.54;-4.90525641901371;15.4965339696249;
1574178733218.17;-4.78555855578882;15.4322014767569;
1574178733234.8;-4.73863141599871;15.4228737461019;
1574178733251.43;-5.01216471340236;15.3957079325964;
1574178733268.07;-5.14645518618288;15.306397315629;
1574178733284.7;-5.0615920696567;15.431528341555;
1574178733301.33;-4.90049639151451;15.3969099597426;
1574178733317.96;-5.20186863762561;15.4735512105884;
1574178733334.59;-5.43777848535122;15.306709842687;
1574178733351.23;-5.78901081748932;15.1297233656712;
1574178733367.86;-5.99316310801066;15.0867388749209;
1574178733384.49;-5.47160352924707;15.1363825960615;
1574178733401.12;-4.42841225009111;15.2571142026322;
1574178733417.76;-4.61102421415141;15.0836136043406;
1574178733434.39;-5.35253072013824;14.9971878525243;
1574178733451.02;-5.48177267890446;15.0077416508685;
1574178733467.65;-5.48436905754038;15.2529071076203;
1574178733484.28;-5.59817698774858;15.4987216590311;
1574178733500.92;-5.43417240391243;16.1502924939345;
1574178733517.55;-5.47744538117791;15.1563122061466;
1574178733534.18;-5.34702543580835;15.1051779713445;
1574178733550.81;-5.27439895563113;14.8033489549179;
1574178733567.44;-5.36108915341963;14.8607577714234;
1574178733584.08;-5.3488765576136;15.0296185449304;
1574178733600.71;-5.26273929231238;14.8960252478948;
1574178733617.34;-5.20891251670271;14.9797344183605;
1574178733633.97;-5.15878798470354;15.0807287391896;
1574178733650.6;-4.95550115372751;15.1237853515687;
1574178733667.24;-5.07012646239517;15.1393395828413;
1574178733683.87;-4.98334010243497;15.0901526320163;
1574178733700.5;-5.06495774566624;14.9747099448891;
1574178733717.13;-4.95028435591273;14.8867936794115;
1574178733733.76;-4.92763816447713;14.9080455193574;
1574178733750.4;-4.85554057624426;15.0949367000584;
1574178733767.03;-4.79608831359009;15.3008439502133;
1574178733783.66;-4.70038291220461;15.3071666130026;
1574178733800.29;-4.73343865872685;15.1064280795767;
1574178733816.93;-4.78926079939931;14.8808797058518;
1574178733833.56;-4.772312216637;14.8014497520268;
1574178733850.19;-4.69918088505835;14.9096562357334;
1574178733866.82;-4.73896798359966;15.1187368375544;
1574178733883.45;-4.77017260831665;15.2161250769446;
1574178733900.09;-4.7102635753469;15.1885746147523;
1574178733916.72;-4.66485098976107;15.0418311407365;
1574178733933.35;-4.71812483288346;14.9256191562358;
1574178733949.98;-4.7535605931553;14.9224217640267;
1574178733966.61;-4.71954322491605;15.0089436780147;
1574178733983.25;-4.68230442392481;15.1038317009407;
1574178733999.88;-4.69107922209254;15.1087359716975;
1574178734016.51;-4.72497638761716;15.0440428706856;
1574178734033.14;-4.68254482935407;14.9924037844821;
1574178734049.77;-4.66083621909255;14.96189633551;
1574178734066.41;-4.64977756934693;14.9824509997111;
1574178734083.04;-4.68427574844469;15.0212283954495;
1574178734099.67;-4.64237308212595;15.0286569232134;
1574178734116.3;-4.64763796102658;15.0223102198812;
1574178734132.93;-4.62717945899719;14.9968512849233;
1574178734149.57;-4.631098067494;14.9743493367453;
1574178734166.2;-4.64270964972691;14.9803594724766;
1574178734182.83;-4.65843216480003;15.0206033413335;
1574178734199.46;-4.63754093299797;15.0229112334543;
1574178734216.1;-4.62975179709019;14.9874754731825;
1574178734232.73;-4.63535324359177;14.9670169711531;
1574178734249.36;-4.62561682370704;14.9726424581976;
1574178734265.99;-4.58847418488751;14.9910094329925;
1574178734282.62;-4.62282812072771;15.0012266637357;
1574178734299.26;-4.64069024412118;14.9721616473391;
1574178734315.89;-4.61943840417525;14.9784362290426;
1574178734332.52;-4.59419583410372;14.982475040254;
1574178734349.15;-4.62275599909894;14.9807681617063;
1574178734365.78;-4.58900307683187;14.9682670793852;
1574178734382.42;-4.62347721538669;14.965093727719;
1574178734399.05;-4.60499003787717;14.9686998091578;
1574178734415.68;-4.6030187133573;14.9740848907731;
1574178734432.31;-4.59390734758862;14.9608385516213;
1574178734448.94;-4.57700684591216;14.9540350779734;
1574178734465.58;-4.60547084873567;14.9630262410275;
1574178734482.21;-4.56808780448689;14.9728828636268;
1574178734498.84;-4.59224855012678;14.9640840249162;
1574178734515.47;-4.59354673944474;14.952568604855;
1574178734532.1;-4.56051503346543;14.9534100238574;
1574178734548.74;-4.58419496824681;14.9709596201928;
1574178734565.37;-4.5740979402182;14.9753109584623;
1574178734582.0;-4.57784826491454;14.9591797541594;
1574178734598.63;-4.59542190179291;14.9454045230632;
1574178734615.26;-4.59034934723568;14.9502366721912;
1574178734631.9;-4.57313631850119;14.9634108897143;
1574178734648.53;-4.56551546639388;14.9576411594122;
1574178734665.16;-4.61854890408702;14.9413657118518;
1574178734681.79;-4.60035021309259;14.9546601320895;
1574178734698.43;-4.5576301683144;14.9726424581976;
1574178734715.06;-4.58289677892885;14.9610068354217;
1574178734731.69;-4.55248549212839;14.9536023482008;
1574178734748.32;-4.57871372445985;14.9419667254249;
1574178734764.95;-4.58241596807034;14.9608625921642;
1574178734781.59;-4.57736745405604;14.9610549165076;
1574178734798.22;-4.56815992611566;14.9517512263955;
1574178734814.85;-4.53815732854493;14.9450919960052;
1574178734831.48;-4.60660075425316;14.9460295771793;
1574178734848.11;-4.56255847961408;14.9649254439186;
1574178734864.75;-4.56455384467687;14.9621367409392;
1574178734881.38;-4.54020077469358;14.9558381186928;
1574178734898.01;-4.58008403540659;14.9397790360187;
1574178734914.64;-4.57539612953617;14.9492510099313;
1574178734931.27;-4.59171965818242;14.9487221179869;
1574178734947.91;-4.57616542690978;14.9551649834909;
1574178734964.54;-4.52856515191775;14.955140942948;
1574178734981.17;-4.61313978192883;14.9542514428597;
1574178734997.8;-4.56892922348927;14.9540831590593;
1574178735014.43;-4.56147665518244;14.9516550642238;
1574178735031.07;-4.54387897776115;14.9449958338335;
1574178735047.7;-4.57717512971264;14.9405242928494;
1574178735064.33;-4.5303201115513;14.9470633205251;
1574178735080.96;-4.53611388239629;14.9498279829615;
1574178735097.6;-4.50750563631522;14.9483134287572;
1574178735114.23;-4.52495907047897;14.9452602798057;
1574178735130.86;-4.57037165606479;14.937110535754;
1574178735147.49;-4.53132981435416;14.9469431178105;
1574178735164.12;-4.52168955664113;14.947423928669;
1574178735180.76;-4.48144568778424;14.9452602798057;
1574178735197.39;-4.51428506942015;14.9472316043256;
1574178735214.02;-4.54536949142251;14.9380481169281;
1574178735230.65;-4.49687971634226;14.9475200908407;
1574178735247.28;-4.50582279831045;14.9462699826086;
1574178735263.92;-4.47632505214116;14.9400675225338;
1574178735280.55;-4.55613965465303;14.9403560090489;
1574178735297.18;-4.49483627019361;14.9446352256896;
1574178735313.81;-4.49151867526992;14.9397309549329;
1574178735330.44;-4.47185351115706;14.9379519547564;
1574178735347.08;-4.51962206994956;14.937110535754;
1574178735363.71;-4.50219267632874;14.9417744010815;
1574178735380.34;-4.50524582528025;14.9396107522183;
1574178735396.97;-4.49084554006802;14.9399713603621;
1574178735413.6;-4.44596184642655;14.9300906972199;
1574178735430.24;-4.51017413657993;14.9368941708677;
1574178735446.87;-4.52171359718405;14.9389376170164;
1574178735463.5;-4.47067552455372;14.9372547790116;
1574178735480.13;-4.4867346072278;14.9267009806674;
1574178735496.77;-4.44305294073259;14.940019441448;
1574178735513.4;-4.50380339270473;14.9253306697207;
1574178735530.03;-4.44483194090906;14.9289848322453;
1574178735546.66;-4.47892143077709;14.930379183735;
1574178735563.29;-4.43805250780414;14.9375192249838;
1574178735579.93;-4.43810058888999;14.9273260347834;
1574178735596.56;-4.46315083461811;14.925234507549;
1574178735613.19;-4.46137183444164;14.9237920749734;
1574178735629.82;-4.45202006324371;14.926821183382;
1574178735646.45;-4.43853331866264;14.9151374795203;
1574178735663.09;-4.4190845194361;14.915233641692;
1574178735679.72;-4.49423525662048;14.9203061962493;
1574178735696.35;-4.45319804984705;14.9148489930052;
1574178735712.98;-4.42023846549652;14.9120602900259;
1574178735729.61;-4.41978169518094;14.9064348029814;
1574178735746.25;-4.46379992927709;14.9200417502771;
1574178735762.88;-4.42495041190987;14.9167962769822;
1574178735779.51;-4.42817184466185;14.9192724529035;
1574178735796.14;-4.42302716847585;14.9128055468566;
1574178735812.77;-4.40540545051163;14.9160750606944;
1574178735829.41;-4.41891623563563;14.9206668043932;
1574178735846.04;-4.43372521007759;14.9245132912612;
1574178735862.67;-4.41112709972784;14.9222775207691;
1574178735879.3;-4.37852812352118;14.9107621007079;
1574178735895.94;-4.42728234457362;14.9218928720823;
1574178735912.57;-4.43437430473657;14.9156904120076;
1574178735929.2;-4.41946916812291;14.9163875877525;
1574178735945.83;-4.37513840696872;14.9114111953669;
1574178735962.46;-4.39706338211656;14.9166520337246;
1574178735979.1;-4.41730551925963;14.9193445745323;
1574178735995.73;-4.41555055962609;14.918142547386;
1574178736012.36;-4.41067032941226;14.917493452727;
1574178736028.99;-4.36585875739957;14.9130940333717;
1574178736045.62;-4.4098529509528;14.9243209669178;
1574178736062.26;-4.42870073660621;14.9318696973963;
1574178736078.89;-4.41105497809907;14.915233641692;
1574178736095.52;-4.36833493332087;14.9130699928288;
1574178736112.15;-4.35900720266587;14.9127093846849;
1574178736128.78;-4.41644005971433;14.9197051826761;
1574178736145.42;-4.35467990493932;14.9169405202397;
1574178736162.05;-4.40547757214041;14.9124930197986;
1574178736178.68;-4.35318939127796;14.9135988847731;
1574178736195.31;-4.38646150268652;14.9167001148105;
1574178736211.94;-4.35547324285586;14.9061463164663;
1574178736228.58;-4.37924933980894;14.9189358853025;
1574178736245.21;-4.39102920584232;14.9224938856555;
1574178736261.84;-4.32551872637098;14.9130940333717;
1574178736278.47;-4.35999286492581;14.9166520337246;
1574178736295.11;-4.38369684025012;14.9103293709353;
1574178736311.74;-4.38999546249653;14.9076368301277;
1574178736328.37;-4.36165166238765;14.9106418979933;
1574178736345.0;-4.35857447289322;14.9194647772469;
1574178736361.63;-4.36304601387731;14.9173492094695;
1574178736378.27;-4.36578663577079;14.9184310339011;
1574178736394.9;-4.35869467560784;14.9079974382715;
1574178736411.53;-4.29695856137576;14.9210754936229;
1574178736428.16;-4.36326237876364;14.9133344388009;
1574178736444.79;-4.38898575969367;14.9221573180545;
1574178736461.43;-4.34491944451167;14.9386972115871;
1574178736478.06;-4.37828771809193;14.9572324701825;
1574178736494.69;-4.39360154393532;14.8564304736968;
1574178736511.32;-4.34616955274378;15.0228631523684;
1574178736527.95;-4.39052435444089;14.8608298930522;
1574178736544.59;-4.41100689701322;14.8520070137986;
1574178736561.22;-4.37629235302913;14.9861532433216;
1574178736577.85;-4.40115027441386;14.8075560499298;
1574178736594.48;-4.50930867703462;14.9690363767588;
1574178736611.11;-4.33362038933679;14.686872524445;
1574178736627.75;-4.37727801528907;14.7361075563559;
1574178736644.38;-4.34895825572311;14.7900064535943;
1574178736661.01;-4.37410466362294;15.0759687116904;
1574178736677.64;-4.21329747199585;14.7387039349918;
1574178736694.28;-4.25154597578994;14.8918902745116;
1574178736710.91;-4.21471586402844;14.8434726210601;
1574178736727.54;-4.07501626908973;14.9643725114313;
1574178736744.17;-4.04763409069786;15.2405021874709;
1574178736760.8;-4.12146259802134;14.6925220520324;
1574178736777.44;-4.13309822079717;14.6890602138512;
1574178736794.07;-4.39691913885901;14.7936365755761;
1574178736810.7;-4.36220459487493;15.0250748823176;
1574178736827.33;-4.36196418944568;14.9746137827174;
1574178736843.96;-4.14100755941958;14.8659024476094;
1574178736860.6;-3.68183318954704;14.9902160950759;
1574178736877.23;-3.53910448619975;14.8496991216778;
1574178736893.86;-4.48971563455053;15.1055385794884;
1574178736910.49;-5.11825562933154;15.1340025823119;
1574178736927.12;-5.55521653754114;15.4143393533634;
1574178736943.76;-5.95724653688032;15.8893083599379;
1574178736960.39;-5.81543137416419;15.7916556745755;
1574178736977.02;-5.32418692002935;15.9118824297447;
1574178736993.65;-4.51988651592173;16.144041952774;
1574178737010.28;-4.30683922451805;16.0515339435975;
1574178737026.92;-4.4484861034337;16.2020037017668;
1574178737043.55;-4.72401476590015;16.1856561325776;
1574178737060.18;-4.79517477295893;16.0933885288304;
1574178737076.81;-4.90463136489765;16.1953925524623;
1574178737093.44;-4.84703022404872;16.317422348351;
1574178737110.08;-4.83020184400104;16.5397492893238;
1574178737126.71;-4.93819196282132;16.4541409159669;
1574178737143.34;-5.02579570124098;16.5933597000471;
1574178737159.97;-5.00238021243177;16.6378827855447;
1574178737176.61;-4.95384235626567;16.587950577889;
1574178737193.24;-4.88330740332294;16.5105400296696;
1574178737209.87;-4.84070756125938;16.5130642866768;
1574178737226.5;-4.82166745126257;16.5253009230257;
1574178737243.13;-4.80635362541918;16.5709539140408;
1574178737259.77;-4.79611235413301;16.5843685369931;
1574178737276.4;-4.78873190745496;16.6732223836449;
1574178737293.03;-4.7768799197928;16.4839752297372;
1574178737309.66;-4.77238433826578;16.5563132233993;
1574178737326.29;-4.7605083100607;16.5796565905797;
1574178737342.93;-4.75769556653844;16.5651601431958;
1574178737359.56;-4.74137203789219;16.5279934638333;
1574178737376.19;-4.72971237457343;16.5354700726831;
1574178737392.82;-4.71324460266963;16.504289488509;
1574178737409.45;-4.70055119600509;16.5170790573453;
1574178737426.09;-4.71211469715214;16.4838309864796;
1574178737442.72;-4.71415814330079;16.4832059323636;
1574178737459.35;-4.71903837351462;16.4929423522483;
1574178737475.98;-4.73199622615133;16.4998900691537;
1574178737492.61;-4.72766892842479;16.494961757854;
1574178737509.25;-4.73961707825864;16.4950098389399;
1574178737525.88;-4.75418564727135;16.4914037575011;
1574178737542.51;-4.75892163422763;16.5257817338842;
1574178737559.14;-4.769739878544;16.5119824622451;
1574178737575.78;-4.78394783941283;16.4914999196728;
1574178737592.41;-4.79200142129279;16.4894083924383;
1574178737609.04;-4.78793856953842;16.5100592188111;
1574178737625.67;-4.79279475920933;16.5288108422928;
1574178737642.3;-4.7854383530742;16.4683488768358;
1574178737658.94;-4.79397274581266;16.4756091207992;
1574178737675.57;-4.79130424554796;16.4890237437515;
1574178737692.2;-4.7861114882761;16.4787824724653;
1574178737708.83;-4.78452481244304;16.5266471934295;
1574178737725.46;-4.79702589476417;16.4785420670361;
1574178737742.1;-4.7927707186664;16.4403897254137;
1574178737758.73;-4.79726630019343;16.4519772671037;
1574178737775.36;-4.80483907121488;16.4558477945146;
1574178737791.99;-4.80082430054636;16.4654399711418;
1574178737808.62;-4.79846832733969;16.4512079697301;
1574178737825.26;-4.79983863828643;16.4266866159463;
1574178737841.89;-4.80964717979994;16.4179839394073;
1574178737858.52;-4.80414189547005;16.4270712646331;
1574178737875.15;-4.80414189547005;16.4475538072054;
1574178737891.78;-4.80212248986433;16.4330814003644;
1574178737908.42;-4.80510351718706;16.4386347657801;
1574178737925.05;-4.80522371990169;16.4017806134757;
1574178737941.68;-4.8013291519478;16.427431872777;
1574178737958.31;-4.8038053278691;16.4389472928382;
1574178737974.95;-4.80928657165606;16.4154596824002;
1574178737991.58;-4.80445442252808;16.4328409949352;
1574178738008.21;-4.81183486920614;16.4208447640155;
1574178738024.84;-4.81212335572124;16.4116372360751;
1574178738041.47;-4.81476781544302;16.4154837229431;
1574178738058.11;-4.81286861255192;16.4211572910735;
1574178738074.74;-4.82592262736034;16.4284175350369;
1574178738091.37;-4.8291200195694;16.4332496841649;
1574178738108.0;-4.82791799242314;16.3921403557627;
1574178738124.63;-4.82599474898912;16.3979341266077;
1574178738141.27;-4.83818330425222;16.4010834377309;
1574178738157.9;-4.83508207421486;16.3860340578597;
1574178738174.53;-4.82976911422838;16.3986072618096;
1574178738191.16;-4.82738910047878;16.3911306529598;
1574178738207.79;-4.82594666790326;16.394279964083;
1574178738224.43;-4.84029887202965;16.3957945182873;
1574178738241.06;-4.83513015530072;16.3960830048024;
1574178738257.69;-4.83791885828005;16.3877649769503;
1574178738274.32;-4.83604369593188;16.379182503126;
1574178738290.95;-4.83962573682774;16.3908662069876;
1574178738307.59;-4.84698214296287;16.3525936626506;
1574178738324.22;-4.8452993049581;16.3784132057524;
1574178738340.85;-4.84570799418783;16.3720424618772;
1574178738357.48;-4.84909771074029;16.396539775118;
1574178738374.12;-4.85575694113059;16.3428572427659;
1574178738390.75;-4.86609437458846;16.3559593386602;
1574178738407.38;-4.86232000934919;16.3907700448159;
1574178738424.01;-4.86342587432375;16.3691095156403;
1574178738440.64;-4.86703195576254;16.3512714327897;
1574178738457.28;-4.87482109167033;16.3529783113374;
1574178738473.91;-4.87895606505347;16.3601423931292;
1574178738490.54;-4.87335461855188;16.3723309483923;
1574178738507.17;-4.8677531720503;16.3596856228136;
1574178738523.8;-4.8790762677681;16.3310773767325;
1574178738540.44;-4.88152840314647;16.3474970675505;
1574178738557.07;-4.8857354981584;16.3725953943644;
1574178738573.7;-4.88429306558288;16.3449487700004;
1574178738590.33;-4.88224961943423;16.3600221904145;
1574178738606.96;-4.89138502574583;16.3278078628947;
1574178738623.6;-4.89412564763931;16.3589644065258;
1574178738640.23;-4.89150522846046;16.3451410943438;
1574178738656.86;-4.88645671444615;16.3808893816737;
1574178738673.49;-4.89756344527762;16.3548053925998;
1574178738690.12;-4.89244280963454;16.3221823758502;
1574178738706.76;-4.88741833616316;16.3331448634241;
1574178738723.39;-4.88333144386587;16.3636282718533;
1574178738740.02;-4.87756171356381;16.3414388507333;
1574178738756.65;-4.8908801743444;16.3211486325044;
1574178738773.28;-4.88474983589846;16.3263894708621;
1574178738789.92;-4.88460559264091;16.3206678216459;
1574178738806.55;-4.87515765927128;16.3676670830648;
1574178738823.18;-4.88648075498908;16.3112679693621;
1574178738839.81;-4.88503832241356;16.346030594432;
1574178738856.45;-4.88176880857573;16.3376164044082;
1574178738873.08;-4.88001384894218;16.2970119274074;
1574178738889.71;-4.8725131995495;16.3241056192842;
1574178738906.34;-4.87979748405586;16.3235046057111;
1574178738922.97;-4.88249002486348;16.3141528345131;
1574178738939.61;-4.88357184929512;16.3176387132373;
1574178738956.24;-4.87900414613932;16.3132873749678;
1574178738972.87;-4.88688944421881;16.3076378473804;
1574178738989.5;-4.87792232170768;16.3263654303192;
1574178739006.13;-4.88999067425617;16.3175906321514;
1574178739022.77;-4.88398053852485;16.3156433481745;
1574178739039.4;-4.88210537617668;16.3128065641093;
1574178739056.03;-4.89246685017747;16.308407144754;
1574178739072.66;-4.90059255368621;16.3272308898645;
1574178739089.29;-4.89285149886427;16.3256442140314;
1574178739105.93;-4.89301978266475;16.3275674574654;
1574178739122.56;-4.89071189054392;16.2898959267015;
1574178739139.19;-4.89809233722198;16.328985849498;
1574178739155.82;-4.89386120166713;16.3329044579948;
1574178739172.45;-4.90253983766316;16.3126863613947;
1574178739189.09;-4.92388783978079;16.345405540316;
1574178739205.72;-4.91939225825376;16.3150663751443;
1574178739222.35;-4.9115310007172;16.3075176446658;
1574178739238.98;-4.8818409302045;16.3147057670004;
1574178739255.62;-4.77332191943986;16.2867706561213;
1574178739272.25;-4.85279995435078;16.2846550883438;
1574178739288.88;-5.00125030691429;16.3044164146284;
1574178739305.51;-4.91215605483326;16.2775871687238;
1574178739322.14;-4.90472752706935;16.1927240521976;
1574178739338.78;-5.09315730251757;16.1883967544711;
1574178739355.41;-5.06483754295161;16.0454516862375;
1574178739372.04;-5.05300959583238;16.1016584755967;
1574178739388.67;-5.15852353873136;16.2691008570712;
1574178739405.3;-5.51187143864689;15.9822731394299;
1574178739421.94;-5.77018707237884;15.8820000348886;
1574178739438.57;-5.37909552007065;15.850675207457;
1574178739455.2;-5.04247983803111;15.9201042954251;
1574178739471.83;-4.73476088858774;15.9083003888488;
1574178739488.46;-4.79507861078723;15.9883073157041;
1574178739505.1;-5.05637527184192;15.8153596498998;
1574178739521.73;-5.18189094645472;15.7058790174181;
1574178739538.36;-5.49424972068267;16.0815365411683;
1574178739554.99;-5.63642549154268;16.5761226307697;
1574178739571.62;-5.7256159057954;16.0344411175777;
1574178739588.26;-5.28444790257389;15.8318514623465;
1574178739604.89;-5.07546346292458;15.4163106778833;
1574178739621.52;-5.1935746503164;15.2824529348754;
1574178739638.15;-5.32637460943555;15.4453997348229;
1574178739654.79;-5.40133302227652;15.4874226038562;
1574178739671.42;-5.2736056177146;15.4399906126647;
1574178739688.05;-5.18530470355011;15.648349998198;
1574178739704.68;-5.02358397129186;15.735521006845;
1574178739721.31;-4.99740382004624;15.7250152895866;
1574178739737.95;-4.90641036507412;15.6436620923275;
1574178739754.58;-4.98074372379904;15.5403117982918;
1574178739771.21;-4.95439528875295;15.4851387522783;
1574178739787.84;-4.90737198679113;15.4982889292585;
1574178739804.47;-4.85549249515841;15.6304157531757;
1574178739821.11;-4.851766211005;15.7352325203299;
1574178739837.74;-4.77082170297564;15.7376365746224;
1574178739854.37;-4.69091093829206;15.6458497817337;
1574178739871.0;-4.78935696157101;15.5878399516551;
1574178739887.63;-4.73516957781747;15.6067358183943;
1574178739904.27;-4.7085566967992;15.633228496698;
1574178739920.9;-4.68189573469509;15.5775986803689;
1574178739937.53;-4.68201593740971;15.5143480119325;
1574178739954.16;-4.71819695451223;15.5253826211352;
1574178739970.79;-4.64499350130481;15.5919989655811;
1574178739987.43;-4.6691542469447;15.6527494175533;
1574178740004.06;-4.64112297389384;15.632242834438;
1574178740020.69;-4.6533596102428;15.5544957186177;
1574178740037.32;-4.66251905709732;15.5022556188411;
1574178740053.96;-4.65655700245186;15.5117516332966;
1574178740070.59;-4.63540132467763;15.5429562580136;
1574178740087.22;-4.61624101196619;15.5609385841217;
1574178740103.85;-4.5968402938255;15.5737521935009;
1574178740120.48;-4.60511024059179;15.5648091115327;
1574178740137.12;-4.61499090373408;15.5519714616106;
1574178740153.75;-4.60277830792804;15.5287723376877;
1574178740170.38;-4.5779925081721;15.5070637274262;
1574178740187.01;-4.56989084520628;15.513218106415;
1574178740203.64;-4.57080438583744;15.5180742960859;
1574178740220.28;-4.57255934547099;15.5269692969683;
1574178740236.91;-4.58443537367607;15.5104534439786;
1574178740253.54;-4.56763103417131;15.491677779954;
1574178740270.17;-4.55856774948848;15.4974234697131;
1574178740286.8;-4.57796846762917;15.5025921864421;
1574178740303.44;-4.55378368144636;15.4950915370494;
1574178740320.07;-4.51039050146625;15.4982408481726;
1574178740336.7;-4.56900134511805;15.4832155088443;
1574178740353.33;-4.48192649864274;15.4887688742601;
1574178740369.96;-4.59073399592249;15.4716279671543;
1574178740386.6;-4.57070822366574;15.4664111693396;
1574178740403.23;-4.54599454553857;15.475282129679;
1574178740419.86;-4.55373560036051;15.4676372370287;
1574178740436.49;-4.55020164055049;15.4591509253761;
1574178740453.12;-4.4736084707906;15.4454718564517;
1574178740469.76;-4.54976891077784;15.4520830057561;
1574178740486.39;-4.52796413834462;15.4502318839509;
1574178740503.02;-4.53587347696703;15.4564583845685;
1574178740519.65;-4.51863640768962;15.4405916262378;
1574178740536.29;-4.49014836432318;15.4334996660749;
1574178740552.92;-4.55445681664826;15.4314081388404;
1574178740569.55;-4.49046089138121;15.4300859089795;
1574178740586.18;-4.51567942090981;15.429605098121;
1574178740602.81;-4.48577298551079;15.4401588964652;
1574178740619.45;-4.50517370365147;15.4088581095765;
1574178740636.08;-4.51541497493763;15.4177531104588;
1574178740652.71;-4.51536689385178;15.4143153128205;
1574178740669.34;-4.51130404209741;15.4008045276965;
1574178740685.97;-4.51286667738756;15.3920297295288;
1574178740702.61;-4.50447652790664;15.3962849056266;
1574178740719.24;-4.49911548683431;15.4003477573809;
1574178740735.87;-4.53306073344478;15.388760215691;
1574178740752.5;-4.49767305425879;15.3790237958062;
1574178740769.13;-4.48021962009505;15.3721962816154;
1574178740785.77;-4.47038703803862;15.3848656477371;
1574178740802.4;-4.46906480817773;15.38037006621;
1574178740819.03;-4.47002642989474;15.3772688361727;
1574178740835.66;-4.45882353689156;15.3596471182085;
1574178740852.3;-4.42168089807203;15.3663063485988;
1574178740868.93;-4.48519601248058;15.3645273484223;
1574178740885.56;-4.46868015949092;15.3583970099763;
1574178740902.19;-4.4487745899488;15.3531561716186;
1574178740918.82;-4.47344018699013;15.3432274273905;
1574178740935.46;-4.42519081733912;15.3503674686393;
1574178740952.09;-4.43853331866264;15.3452949140821;
1574178740968.72;-4.46557892945356;15.3307023045264;
1574178740985.35;-4.45687625291462;15.3366162780861;
1574178741001.98;-4.42134433047108;15.3342362643365;
1574178741018.62;-4.43975938635183;15.3246681282522;
1574178741035.25;-4.38513927282563;15.3271683447164;
1574178741051.88;-4.43879776463482;15.3186820330638;
1574178741068.51;-4.42358010096313;15.3136094785066;
1574178741085.14;-4.4049005991102;15.31733576266;
1574178741101.78;-4.4189883572644;15.3198119385813;
1574178741118.41;-4.42254635761734;15.3185618303492;
1574178741135.04;-4.41110305918492;15.3094264240376;
1574178741151.67;-4.39939531478031;15.3006997069557;
1574178741168.3;-4.36155550021595;15.2956031118556;
1574178741184.94;-4.4232675739051;15.3070704508309;
1574178741201.57;-4.40939618063722;15.3064694372578;
1574178741218.2;-4.40583818028428;15.296107963257;
1574178741234.83;-4.35879083777954;15.2881265030058;
1574178741251.47;-4.42771507434627;15.291275814129;
1574178741268.1;-4.41973361409509;15.2956271523985;
1574178741284.73;-4.39999632835345;15.2733896501926;
1574178741301.36;-4.37956186686697;15.2721395419605;
1574178741317.99;-4.36302197333439;15.2750003665686;
1574178741334.63;-4.42139241155693;15.272932879877;
1574178741351.26;-4.38384108350767;15.262331000447;
1574178741367.89;-4.39247163841784;15.2624752437045;
1574178741384.52;-4.39826540926283;15.2482432422928;
1574178741401.15;-4.40165512581529;15.2580758243492;
1574178741417.79;-4.39619792257125;15.2549505537689;
1574178741434.42;-4.37936954252357;15.2520656886179;
1574178741451.05;-4.36989756861101;15.2363191330019;
1574178741467.68;-4.40838647783436;15.2361268086585;
1574178741484.31;-4.39047627335504;15.2493010261815;
1574178741500.95;-4.3890098002366;15.2346122544542;
1574178741517.58;-4.36867150092183;15.2332659840504;
1574178741534.21;-4.36648381151563;15.2239622939383;
1574178741550.84;-4.38578836748461;15.2267509969176;
1574178741567.47;-4.36256520301881;15.2161491174876;
1574178741584.11;-4.37006585241149;15.2182166041791;
1574178741600.74;-4.34191437664601;15.2270154428898;
1574178741617.37;-4.38677402974455;15.1994890212404;
1574178741634.0;-4.35792537823423;15.1992245752682;
1574178741650.63;-4.36557027088447;15.2020613593334;
1574178741667.27;-4.3479004718344;15.2023017647626;
1574178741683.9;-4.31662372548863;15.2004506429574;
1574178741700.53;-4.34179417393138;15.1866032902324;
1574178741717.16;-4.33511090299816;15.2069415895472;
1574178741733.8;-4.33561575439959;15.1879014795504;
1574178741750.43;-4.35763689171913;15.176434140575;
1574178741767.06;-4.34927078278114;15.1745349376839;
1574178741783.69;-4.36602704120005;15.1823240735917;
1574178741800.32;-4.33390887585189;15.18674753349;
1574178741816.96;-4.33491857865476;15.1752080728858;
1574178741833.59;-4.31568614431454;15.1662409503747;
1574178741850.22;-4.34523197156969;15.156167962889;
1574178741866.85;-4.33676970046;15.16809207218;
1574178741883.48;-4.31804211752122;15.1722030050202;
1574178741900.12;-4.34487136342582;15.1582354495806;
1574178741916.75;-4.37146020390116;15.1533311788239;
1574178741933.38;-4.28984256066989;15.1618174904765;
1574178741950.01;-4.32042213127082;15.1509030839884;
1574178741966.64;-4.3507612964425;15.1511434894177;
1574178741983.28;-4.27676450531854;15.1527301652507;
1574178741999.91;-4.32022980692742;15.1459747726887;
1574178742016.54;-4.36682037911658;15.1422004074495;
1574178742033.17;-4.3279227806635;15.1461190159463;
1574178742049.8;-4.32914884835269;15.1409983803032;
1574178742066.44;-4.33664949774538;15.1328245957086;
1574178742083.07;-4.30005979141312;15.1351084472865;
1574178742099.7;-4.31902777978116;15.1376807853795;
1574178742116.33;-4.31784979317782;15.1245306083994;
1574178742132.97;-4.27678854586147;15.13078114956;
1574178742149.6;-4.32186456384634;15.1273433519216;
1574178742166.23;-4.30467557565477;15.125949000432;
1574178742182.86;-4.29510743957052;15.1257085950027;
1574178742199.49;-4.29001084447036;15.1550140168286;
1574178742216.13;-4.33131249721597;15.1338102579685;
1574178742232.76;-4.36237287867541;15.0665448188637;
1574178742249.39;-4.34869380975093;15.0774832658946;
1574178742266.02;-4.35857447289322;15.1251797030584;
1574178742282.65;-4.35552132394171;15.1305407441307;
1574178742299.29;-4.4459137653407;14.7848136963225;
1574178742315.92;-4.48894633717692;15.0140162325719;
1574178742332.55;-4.16350950759763;14.9560304430362;
1574178742349.18;-4.30611800823029;14.8892217742469;
1574178742365.81;-4.25486357071363;15.0515194795354;
1574178742382.45;-4.23368385239647;15.2122785900766;
1574178742399.08;-4.07220352556748;15.125949000432;
1574178742415.71;-4.02251172334096;14.8486172972461;
1574178742432.34;-3.83357709649131;15.2458632285432;
1574178742448.97;-3.73546764081331;15.2426177552483;
1574178742465.61;-4.00248595108421;15.1489077189256;
1574178742482.24;-4.26536928797197;15.378759349834;
1574178742498.87;-4.44680326542893;14.951270415537;
1574178742515.5;-4.48858572903304;15.2104755493572;
1574178742532.14;-4.23166444679075;14.8676333667;
1574178742548.77;-4.16819741346805;15.2249719967411;
1574178742565.4;-3.85987745045155;14.7947905216365;
1574178742582.03;-3.70659494876007;15.1928057503071;
1574178742598.66;-4.51115979883986;15.0705836300751;
1574178742615.3;-4.81267628820852;15.2773803803182;
1574178742631.93;-5.10125896548338;15.3292117908651;
1574178742648.56;-5.05300959583238;15.7067444769634;
1574178742665.19;-5.50530837042829;15.8337266246947;
1574178742681.82;-5.30041082307627;16.0100399665085;
1574178742698.46;-4.89193795823311;16.124737396805;
1574178742715.09;-4.54873516743205;16.4083436816943;
1574178742731.72;-4.53113749001076;16.4370240494042;
1574178742748.35;-4.77675971707818;16.3657438396307;
1574178742764.98;-4.70999912937472;16.2383770432127;
1574178742781.62;-4.79947803014255;16.3089360366983;
1574178742798.25;-5.17354887805965;16.3477855540656;
1574178742814.88;-5.24951699370348;16.4371682926617;
1574178742831.51;-5.24331453362877;16.5693191571219;
1574178742848.14;-5.17898204076076;16.5548227097379;
1574178742864.78;-5.12162130534108;16.5393165595511;
1574178742881.41;-5.09940784367814;16.4823885539041;
1574178742898.04;-5.04911502787849;16.4900815276402;
1574178742914.67;-4.98314777809156;16.5139057056791;
1574178742931.31;-4.9433125984644;16.4883265680067;
1574178742947.94;-4.92395996140956;16.5221275713596;
1574178742964.57;-4.91169928451768;16.5326332886179;
1574178742981.2;-4.89703455333327;16.5244595040233;
1574178742997.83;-4.86582992861628;16.4857061488278;
1574178743014.47;-4.84457808867034;16.4433707527364;
1574178743031.1;-4.79930974634207;16.4918364872738;
1574178743047.73;-4.81166658540566;16.3604068391013;
1574178743064.36;-4.80486311175781;16.3903132745004;
1574178743080.99;-4.78709715053604;16.4381779954646;
1574178743097.63;-4.77216797337945;16.3492279866411;
1574178743114.26;-4.78808281279598;16.3474249459217;
1574178743130.89;-4.77159100034924;16.3339622418835;
1574178743147.52;-4.77413929789932;16.3296830252428;
1574178743164.15;-4.77452394658613;16.3516080003907;
1574178743180.79;-4.77603850079042;16.3096091719003;
1574178743197.42;-4.77332191943986;16.3361018502039;
1574178743214.05;-4.78853958311156;16.2858090344042;
1574178743230.68;-4.77923589299948;16.3010988197047;
1574178743247.31;-4.77214393283652;16.308719671812;
1574178743263.95;-4.77353828432619;16.3580989469805;
1574178743280.58;-4.76324893195418;16.3118209018494;
1574178743297.21;-4.77161504089217;16.2918672512214;
1574178743313.84;-4.760412147889;16.2975889004376;
1574178743330.47;-4.75598868799075;16.3057626850322;
1574178743347.11;-4.76291236435322;16.3170617402071;
1574178743363.74;-4.75884951259885;16.3610318932174;
1574178743380.37;-4.77026877048835;16.2881650076109;
1574178743397.0;-4.76906674334209;16.2390261378717;
1574178743413.64;-4.75271917415291;16.2940068595418;
1574178743430.27;-4.7702206894025;16.2563112882349;
1574178743446.9;-4.75656566102095;16.2689325732707;
1574178743463.53;-4.75868122879838;16.2511666120489;
1574178743480.16;-4.76642228362031;16.3101621043875;
1574178743496.8;-4.75916203965688;16.2882371292397;
1574178743513.43;-4.75961880997246;16.3232401597389;
1574178743530.06;-4.77267282478088;16.3102582665592;
1574178743546.69;-4.77788962259566;16.3137681858263;
1574178743563.32;-4.76647036470616;16.3660804072317;
1574178743579.96;-4.77014856777373;16.3056905634034;
1574178743596.59;-4.76822532433971;16.319033064727;
1574178743613.22;-4.77952437951458;16.3161722401189;
1574178743629.85;-4.77726456847961;16.3526657842794;
1574178743646.48;-4.78303429878167;16.3529302302516;
1574178743663.12;-4.79017434003047;16.3659121234312;
1574178743679.75;-4.79190525912109;16.3042481308279;
1574178743696.38;-4.79281879975225;16.3270145249781;
1574178743713.01;-4.79558346218866;16.2862658047198;
1574178743729.64;-4.80426209818468;16.3034067118255;
1574178743746.28;-4.79789135430948;16.2899440077874;
1574178743762.91;-4.80873363916878;16.2760245334337;
1574178743779.54;-4.80431017927053;16.2960262651475;
1574178743796.17;-4.80789222016639;16.2667929649504;
1574178743812.81;-4.80623342270455;16.2637638565418;
1574178743829.44;-4.80483907121488;16.281049006905;
1574178743846.07;-4.81010395011552;16.2586191803558;
1574178743862.7;-4.8106568826028;16.2465508278073;
1574178743879.33;-4.80640170650503;16.2515993418216;
1574178743895.97;-4.81015203120137;16.2453007195752;
1574178743912.6;-4.81219547735001;16.2639802214281;
1574178743929.23;-4.80887788242633;16.2569123018081;
1574178743945.86;-4.81782096439453;16.2243133256014;
1574178743962.49;-4.81938359968467;16.2472480035521;
1574178743979.13;-4.82717273559245;16.2739570467421;
1574178743995.76;-4.82012885651535;16.2233517038844;
1574178744012.39;-4.80890192296925;16.2464306250927;
1574178744029.02;-4.8129407341807;16.2156827706913;
1574178744045.65;-4.81784500493745;16.2281838530124;
1574178744062.29;-4.82969699259961;16.2380645161547;
1574178744078.92;-4.82041734303045;16.2347228806881;
1574178744095.55;-4.82171553234842;16.2245777715736;
1574178744112.18;-4.82363877578244;16.2183031898701;
1574178744128.81;-4.83219720906383;16.2445554627445;
1574178744145.45;-4.83561096615922;16.2116920405657;
1574178744162.08;-4.82887961414015;16.2393386649297;
1574178744178.71;-4.83510611475779;16.2103698107048;
1574178744195.34;-4.83207700634921;16.2433534355982;
1574178744211.98;-4.83765441230787;16.2044317966022;
1574178744228.61;-4.84037099365842;16.2251307040609;
1574178744245.24;-4.84433768324109;16.1999362150752;
1574178744261.87;-4.84647729156144;16.2105140539623;
1574178744278.5;-4.83991422334284;16.236670164665;
1574178744295.14;-4.83808714208052;16.2076772698971;
1574178744311.77;-4.84960256214172;16.2038067424862;
1574178744328.4;-4.84842457553839;16.2083984861849;
1574178744345.03;-4.84594839961708;16.2091677835585;
1574178744361.66;-4.84400111564014;16.2073647428391;
1574178744378.3;-4.84962660268465;16.2035903775998;
1574178744394.93;-4.84849669716716;16.2082782834703;
1574178744411.56;-4.85352117063854;16.1863533083224;
1574178744428.19;-4.84645325101852;16.2307081100195;
1574178744444.82;-4.85609350873155;16.167505522669;
1574178744461.46;-4.86126222546048;16.1969071066666;
1574178744478.09;-4.85712725207733;16.1959935660355;
1574178744494.72;-4.85736765750658;16.2003929853908;
1574178744511.35;-4.85513188701454;16.1810643888789;
1574178744527.98;-4.85755998184999;16.1763524424655;
1574178744544.62;-4.85352117063854;16.1874832138399;
1574178744561.25;-4.8560454276457;16.173611820572;
1574178744577.88;-4.8565262385042;16.2072445401245;
1574178744594.51;-4.8540500625829;16.1764726451801;
1574178744611.15;-4.86102182003122;16.1882525112135;
1574178744627.78;-4.85664644121883;16.1682267389568;
1574178744644.41;-4.85777634673631;16.1772179020108;
1574178744661.04;-4.8628969823794;16.194527092917;
1574178744677.67;-4.86054100917272;16.1625291302835;
1574178744694.31;-4.86691175304791;16.1709673608503;
1574178744710.94;-4.86662326653281;16.1827472268836;
1574178744727.57;-4.86152667143266;16.1848387541181;
1574178744744.2;-4.8628969823794;16.1514464399949;
1574178744760.83;-4.85289611652249;16.1741887936022;
1574178744777.47;-4.86845034779513;16.1586586028725;
1574178744794.1;-4.86248829314967;16.1779871993844;
1574178744810.73;-4.86272869857892;16.151109872394;
1574178744827.36;-4.85840140085237;16.1885169571857;
1574178744843.99;-4.86217576609164;16.1502924939345;
1574178744860.63;-4.86628669893186;16.1680103740705;
1574178744877.26;-4.86667134761866;16.1755350640061;
1574178744893.89;-4.86217576609164;16.1620964005108;
1574178744910.52;-4.85996403614251;16.1417581011961;
1574178744927.15;-4.86496446907097;16.1503886561062;
1574178744943.79;-4.87328249692311;16.1516387643383;
1574178744960.42;-4.86720023956302;16.1507011831643;
1574178744977.05;-4.86580588807335;16.1563507107517;
1574178744993.68;-4.86982065874187;16.1255547752644;
1574178745010.31;-4.86335375269498;16.1537543321158;
1574178745026.95;-4.87306613203678;16.1425033580267;
1574178745043.58;-4.86861863159561;16.1482971288717;
1574178745060.21;-4.8769847405336;16.132454411084;
1574178745076.84;-4.86919560462581;16.1513502778232;
1574178745093.48;-4.88261022757811;16.1308677352509;
1574178745110.11;-4.87974940297;16.1544274673177;
1574178745126.74;-4.88898097145331;16.1061780976667;
1574178745143.37;-4.88842803896602;16.1360364519799;
1574178745160.0;-4.89446221524027;16.1187753421595;
1574178745176.64;-4.89794809396443;16.1423591147692;
1574178745193.27;-4.90321297286506;16.1255547752644;
1574178745209.9;-4.89542383695728;16.1473835882406;
1574178745226.53;-4.90179458083247;16.1250258833201;
1574178745243.16;-4.90980008162658;16.121515964053;
1574178745259.8;-4.91191564940401;16.1389693982167;
1574178745276.43;-4.92331086675058;16.1103611521357;
1574178745293.06;-4.91907973119574;16.1299782351627;
1574178745309.69;-4.91891144739526;16.1471912638972;
1574178745326.32;-4.92549855615678;16.1265404375244;
1574178745342.96;-4.93001817822673;16.145003574491;
1574178745359.59;-5.01791040316149;16.1208428288511;
1574178745376.22;-4.96850708745008;16.1410368849083;
1574178745392.85;-4.92999413768381;16.1282953971579;
1574178745409.48;-4.89109653923073;16.0714154725967;
1574178745426.12;-4.92593128592944;16.0230459002311;
1574178745442.75;-4.80322835483889;15.9246719985809;
1574178745459.38;-5.17304402665822;15.9167145788727;
1574178745476.01;-5.06930908393571;15.9266433231008;
1574178745492.65;-5.09808561381725;16.0074195473297;
1574178745509.28;-4.98016675076883;15.88957280591;
1574178745525.91;-5.20811917878618;15.6022883179531;
1574178745542.54;-5.69210338895759;15.6360893213061;
1574178745559.17;-5.87269594741217;15.5498558938332;
1574178745575.81;-5.32656693377895;15.6060146021066;
1574178745592.44;-4.81847005905351;15.6014709394937;
1574178745609.07;-4.79546325947403;15.7677593749077;
1574178745625.7;-5.18583359549446;15.7123699640079;
1574178745642.33;-5.39657299477732;15.6257038067624;
1574178745658.97;-5.52134341255944;15.6149817246177;
1574178745675.6;-5.56247678150457;16.0498991866786;
1574178745692.23;-5.44672156731942;16.6309350686393;
1574178745708.86;-5.45883800095375;15.956189150356;
1574178745725.49;-5.24999780456199;15.9530879203186;
1574178745742.13;-5.26550395474878;15.6443592680724;
1574178745758.76;-5.31110886467801;15.4012372574692;
1574178745775.39;-5.32582167694827;15.3323130209024;
1574178745792.02;-5.18285256817173;15.3411118596131;
1574178745808.65;-5.23326558668601;15.3489490766067;
1574178745825.29;-5.11558712906684;15.4025114062442;
1574178745841.92;-4.99170621137296;15.6235882389849;
1574178745858.55;-4.93061919179986;15.7129469370381;
1574178745875.18;-4.88708176856221;15.6626781617814;
1574178745891.82;-4.85217490023473;15.5343737841893;
1574178745908.45;-4.9343695164962;15.34757876566;
1574178745925.08;-4.96865133070763;15.2316312271314;
1574178745941.71;-4.85104499471724;15.4324659227291;
1574178745958.34;-4.77493263581586;15.8199754341414;
1574178745974.98;-4.74550701127533;15.8954627389267;
1574178745991.61;-4.64573875813549;15.5829837619842;
1574178746008.24;-4.71096075109173;15.474296467419;
1574178746024.87;-4.73168369909331;15.5115833494961;
1574178746041.5;-4.67641449090813;15.6063992507934;
1574178746058.14;-4.66343259772848;15.6799152310588;
1574178746074.77;-4.68187169415216;15.667317986566;
1574178746091.4;-4.65739842145424;15.5804114238912;
1574178746108.03;-4.63883912231594;15.4913412123531;
1574178746124.66;-4.58472386019117;15.4746570755629;
1574178746141.3;-4.65749458362594;15.5416340281527;
1574178746157.93;-4.61902971494552;15.6351998212178;
1574178746174.56;-4.64280581189861;15.661836742779;
1574178746191.19;-4.63626678422293;15.6382048890835;
1574178746207.82;-4.64417612284535;15.5573805837688;
1574178746224.46;-4.64778220428414;15.5256951481933;
1574178746241.09;-4.61768344454171;15.53511904102;
1574178746257.72;-4.60975006537637;15.5713000581225;
1574178746274.35;-4.60434094321819;15.5870706542815;
1574178746290.99;-4.57140539941057;15.5797863697751;
1574178746307.62;-4.61136078175236;15.5708913688928;
1574178746324.25;-4.56332777698769;15.5557458268498;
1574178746340.88;-4.5873202388271;15.552812880613;
1574178746357.51;-4.60722580836922;15.561491516609;
1574178746374.15;-4.56373646621741;15.5805075860629;
1574178746390.78;-4.60208113218321;15.5733194637282;
1574178746407.41;-4.55969765500597;15.5514906507521;
1574178746424.04;-4.58594992788036;15.5427879742131;
1574178746440.67;-4.5509709379241;15.558895137973;
1574178746457.31;-4.55712531691297;15.5644244628459;
1574178746473.94;-4.56597223670946;15.5482451774572;
1574178746490.57;-4.57902625151788;15.5335804462727;
1574178746507.2;-4.53911895026195;15.5256470671074;
1574178746523.83;-4.53611388239629;15.5503847857775;
1574178746540.47;-4.54628303205367;15.5591115028594;
1574178746557.1;-4.50615936591141;15.5469469881392;
1574178746573.73;-4.54488868056401;15.5342535814747;
1574178746590.36;-4.51250606924368;15.5295416350613;
1574178746606.99;-4.53320497670233;15.5379558250851;
1574178746623.63;-4.51435719104892;15.5381241088856;
